#{"date": "2014-02-26T14:54:48.967658", "MAC": "/dev/tty.bitalino-DevB", "ChannelsOrder": ["SeqN", "Digital0", "Digital1", "Digital2", "Digital3", "EMG"]}
0	1	1	1	1	499
1	1	1	1	1	497
2	1	1	1	1	496
3	1	1	1	1	494
4	1	1	1	1	494
5	1	1	1	1	494
6	1	1	1	1	494
7	1	1	1	1	494
8	1	1	1	1	492
9	1	1	1	1	492
10	1	1	1	1	494
11	1	1	1	1	496
12	1	1	1	1	496
13	1	1	1	1	497
14	1	1	1	1	499
15	1	1	1	1	497
0	1	1	1	1	496
1	1	1	1	1	496
2	1	1	1	1	492
3	1	1	1	1	487
4	1	1	1	1	492
5	1	1	1	1	494
6	1	1	1	1	496
7	1	1	1	1	494
8	1	1	1	1	492
9	1	1	1	1	494
10	1	1	1	1	487
11	1	1	1	1	487
12	1	1	1	1	492
13	1	1	1	1	496
14	1	1	1	1	496
15	1	1	1	1	496
0	1	1	1	1	495
1	1	1	1	1	492
2	1	1	1	1	489
3	1	1	1	1	492
4	1	1	1	1	492
5	1	1	1	1	494
6	1	1	1	1	496
7	1	1	1	1	496
8	1	1	1	1	496
9	1	1	1	1	496
10	1	1	1	1	496
11	1	1	1	1	496
12	1	1	1	1	496
13	1	1	1	1	496
14	1	1	1	1	492
15	1	1	1	1	492
0	1	1	1	1	494
1	1	1	1	1	494
2	1	1	1	1	494
3	1	1	1	1	492
4	1	1	1	1	492
5	1	1	1	1	492
6	1	1	1	1	494
7	1	1	1	1	499
8	1	1	1	1	504
9	1	1	1	1	504
10	1	1	1	1	504
11	1	1	1	1	499
12	1	1	1	1	495
13	1	1	1	1	487
14	1	1	1	1	492
15	1	1	1	1	487
0	1	1	1	1	489
1	1	1	1	1	494
2	1	1	1	1	492
3	1	1	1	1	494
4	1	1	1	1	494
5	1	1	1	1	494
6	1	1	1	1	494
7	1	1	1	1	494
8	1	1	1	1	494
9	1	1	1	1	495
10	1	1	1	1	496
11	1	1	1	1	496
12	1	1	1	1	497
13	1	1	1	1	497
14	1	1	1	1	496
15	1	1	1	1	497
0	1	1	1	1	499
1	1	1	1	1	502
2	1	1	1	1	502
3	1	1	1	1	499
4	1	1	1	1	497
5	1	1	1	1	497
6	1	1	1	1	496
7	1	1	1	1	496
8	1	1	1	1	494
9	1	1	1	1	494
10	1	1	1	1	496
11	1	1	1	1	496
12	1	1	1	1	496
13	1	1	1	1	497
14	1	1	1	1	497
15	1	1	1	1	497
0	1	1	1	1	499
1	1	1	1	1	499
2	1	1	1	1	499
3	1	1	1	1	497
4	1	1	1	1	497
5	1	1	1	1	497
6	1	1	1	1	497
7	1	1	1	1	496
8	1	1	1	1	496
9	1	1	1	1	494
10	1	1	1	1	494
11	1	1	1	1	496
12	1	1	1	1	496
13	1	1	1	1	497
14	1	1	1	1	499
15	1	1	1	1	502
0	1	1	1	1	504
1	1	1	1	1	504
2	1	1	1	1	504
3	1	1	1	1	504
4	1	1	1	1	502
5	1	1	1	1	496
6	1	1	1	1	496
7	1	1	1	1	494
8	1	1	1	1	496
9	1	1	1	1	494
10	1	1	1	1	487
11	1	1	1	1	487
12	1	1	1	1	483
13	1	1	1	1	492
14	1	1	1	1	497
15	1	1	1	1	499
0	1	1	1	1	504
1	1	1	1	1	504
2	1	1	1	1	504
3	1	1	1	1	497
4	1	1	1	1	489
5	1	1	1	1	486
6	1	1	1	1	487
7	1	1	1	1	492
8	1	1	1	1	492
9	1	1	1	1	492
10	1	1	1	1	492
11	1	1	1	1	492
12	1	1	1	1	496
13	1	1	1	1	496
14	1	1	1	1	496
15	1	1	1	1	496
0	1	1	1	1	496
1	1	1	1	1	496
2	1	1	1	1	494
3	1	1	1	1	492
4	1	1	1	1	494
5	1	1	1	1	494
6	1	1	1	1	492
7	1	1	1	1	492
8	1	1	1	1	492
9	1	1	1	1	492
10	1	1	1	1	494
11	1	1	1	1	492
12	1	1	1	1	494
13	1	1	1	1	495
14	1	1	1	1	494
15	1	1	1	1	492
0	1	1	1	1	494
1	1	1	1	1	496
2	1	1	1	1	496
3	1	1	1	1	496
4	1	1	1	1	494
5	1	1	1	1	492
6	1	1	1	1	487
7	1	1	1	1	487
8	1	1	1	1	487
9	1	1	1	1	487
10	1	1	1	1	487
11	1	1	1	1	487
12	1	1	1	1	487
13	1	1	1	1	487
14	1	1	1	1	487
15	1	1	1	1	487
0	1	1	1	1	487
1	1	1	1	1	487
2	1	1	1	1	487
3	1	1	1	1	487
4	1	1	1	1	487
5	1	1	1	1	487
6	1	1	1	1	487
7	1	1	1	1	487
8	1	1	1	1	487
9	1	1	1	1	487
10	1	1	1	1	487
11	1	1	1	1	487
12	1	1	1	1	487
13	1	1	1	1	487
14	1	1	1	1	487
15	1	1	1	1	487
0	1	1	1	1	487
1	1	1	1	1	487
2	1	1	1	1	487
3	1	1	1	1	487
4	1	1	1	1	486
5	1	1	1	1	487
6	1	1	1	1	492
7	1	1	1	1	494
8	1	1	1	1	496
9	1	1	1	1	496
10	1	1	1	1	496
11	1	1	1	1	496
12	1	1	1	1	494
13	1	1	1	1	486
14	1	1	1	1	481
15	1	1	1	1	481
0	1	1	1	1	476
1	1	1	1	1	480
2	1	1	1	1	483
3	1	1	1	1	481
4	1	1	1	1	481
5	1	1	1	1	483
6	1	1	1	1	487
7	1	1	1	1	487
8	1	1	1	1	487
9	1	1	1	1	487
10	1	1	1	1	489
11	1	1	1	1	487
12	1	1	1	1	487
13	1	1	1	1	492
14	1	1	1	1	492
15	1	1	1	1	492
0	1	1	1	1	487
1	1	1	1	1	487
2	1	1	1	1	492
3	1	1	1	1	492
4	1	1	1	1	492
5	1	1	1	1	489
6	1	1	1	1	487
7	1	1	1	1	483
8	1	1	1	1	483
9	1	1	1	1	486
10	1	1	1	1	487
11	1	1	1	1	492
12	1	1	1	1	492
13	1	1	1	1	495
14	1	1	1	1	497
15	1	1	1	1	496
0	1	1	1	1	494
1	1	1	1	1	487
2	1	1	1	1	480
3	1	1	1	1	483
4	1	1	1	1	492
5	1	1	1	1	492
6	1	1	1	1	487
7	1	1	1	1	486
8	1	1	1	1	486
9	1	1	1	1	487
10	1	1	1	1	487
11	1	1	1	1	487
12	1	1	1	1	487
13	1	1	1	1	487
14	1	1	1	1	487
15	1	1	1	1	487
0	1	1	1	1	487
1	1	1	1	1	487
2	1	1	1	1	487
3	1	1	1	1	487
4	1	1	1	1	487
5	1	1	1	1	487
6	1	1	1	1	487
7	1	1	1	1	487
8	1	1	1	1	487
9	1	1	1	1	487
10	1	1	1	1	487
11	1	1	1	1	487
12	1	1	1	1	487
13	1	1	1	1	487
14	1	1	1	1	487
15	1	1	1	1	487
0	1	1	1	1	489
1	1	1	1	1	489
2	1	1	1	1	492
3	1	1	1	1	487
4	1	1	1	1	489
5	1	1	1	1	492
6	1	1	1	1	492
7	1	1	1	1	492
8	1	1	1	1	494
9	1	1	1	1	494
10	1	1	1	1	494
11	1	1	1	1	496
12	1	1	1	1	496
13	1	1	1	1	494
14	1	1	1	1	494
15	1	1	1	1	492
0	1	1	1	1	492
1	1	1	1	1	492
2	1	1	1	1	492
3	1	1	1	1	492
4	1	1	1	1	494
5	1	1	1	1	496
6	1	1	1	1	496
7	1	1	1	1	496
8	1	1	1	1	496
9	1	1	1	1	496
10	1	1	1	1	494
11	1	1	1	1	487
12	1	1	1	1	480
13	1	1	1	1	476
14	1	1	1	1	483
15	1	1	1	1	483
0	1	1	1	1	487
1	1	1	1	1	487
2	1	1	1	1	487
3	1	1	1	1	487
4	1	1	1	1	487
5	1	1	1	1	492
6	1	1	1	1	492
7	1	1	1	1	492
8	1	1	1	1	489
9	1	1	1	1	489
10	1	1	1	1	487
11	1	1	1	1	492
12	1	1	1	1	496
13	1	1	1	1	494
14	1	1	1	1	494
15	1	1	1	1	494
0	1	1	1	1	494
1	1	1	1	1	494
2	1	1	1	1	494
3	1	1	1	1	486
4	1	1	1	1	483
5	1	1	1	1	487
6	1	1	1	1	492
7	1	1	1	1	492
8	1	1	1	1	492
9	1	1	1	1	487
10	1	1	1	1	487
11	1	1	1	1	487
12	1	1	1	1	491
13	1	1	1	1	492
14	1	1	1	1	492
15	1	1	1	1	494
0	1	1	1	1	494
1	1	1	1	1	494
2	1	1	1	1	494
3	1	1	1	1	492
4	1	1	1	1	494
5	1	1	1	1	496
6	1	1	1	1	496
7	1	1	1	1	504
8	1	1	1	1	504
9	1	1	1	1	505
10	1	1	1	1	505
11	1	1	1	1	504
12	1	1	1	1	499
13	1	1	1	1	496
14	1	1	1	1	487
15	1	1	1	1	476
0	1	1	1	1	473
1	1	1	1	1	483
2	1	1	1	1	487
3	1	1	1	1	492
4	1	1	1	1	492
5	1	1	1	1	492
6	1	1	1	1	494
7	1	1	1	1	496
8	1	1	1	1	496
9	1	1	1	1	496
10	1	1	1	1	496
11	1	1	1	1	496
12	1	1	1	1	496
13	1	1	1	1	497
14	1	1	1	1	499
15	1	1	1	1	499
0	1	1	1	1	499
1	1	1	1	1	496
2	1	1	1	1	496
3	1	1	1	1	492
4	1	1	1	1	487
5	1	1	1	1	483
6	1	1	1	1	487
7	1	1	1	1	489
8	1	1	1	1	487
9	1	1	1	1	487
10	1	1	1	1	489
11	1	1	1	1	492
12	1	1	1	1	494
13	1	1	1	1	494
14	1	1	1	1	495
15	1	1	1	1	496
0	1	1	1	1	496
1	1	1	1	1	496
2	1	1	1	1	497
3	1	1	1	1	497
4	1	1	1	1	496
5	1	1	1	1	496
6	1	1	1	1	499
7	1	1	1	1	497
8	1	1	1	1	496
9	1	1	1	1	494
10	1	1	1	1	494
11	1	1	1	1	492
12	1	1	1	1	494
13	1	1	1	1	496
14	1	1	1	1	496
15	1	1	1	1	496
0	1	1	1	1	496
1	1	1	1	1	497
2	1	1	1	1	497
3	1	1	1	1	496
4	1	1	1	1	496
5	1	1	1	1	496
6	1	1	1	1	496
7	1	1	1	1	496
8	1	1	1	1	492
9	1	1	1	1	492
10	1	1	1	1	492
11	1	1	1	1	492
12	1	1	1	1	494
13	1	1	1	1	494
14	1	1	1	1	492
15	1	1	1	1	492
0	1	1	1	1	496
1	1	1	1	1	496
2	1	1	1	1	496
3	1	1	1	1	496
4	1	1	1	1	496
5	1	1	1	1	496
6	1	1	1	1	496
7	1	1	1	1	496
8	1	1	1	1	497
9	1	1	1	1	502
10	1	1	1	1	499
11	1	1	1	1	497
12	1	1	1	1	497
13	1	1	1	1	499
14	1	1	1	1	496
15	1	1	1	1	494
0	1	1	1	1	483
1	1	1	1	1	483
2	1	1	1	1	489
3	1	1	1	1	496
4	1	1	1	1	494
5	1	1	1	1	492
6	1	1	1	1	492
7	1	1	1	1	494
8	1	1	1	1	496
9	1	1	1	1	496
10	1	1	1	1	496
11	1	1	1	1	496
12	1	1	1	1	496
13	1	1	1	1	496
14	1	1	1	1	496
15	1	1	1	1	496
0	1	1	1	1	492
1	1	1	1	1	492
2	1	1	1	1	492
3	1	1	1	1	494
4	1	1	1	1	497
5	1	1	1	1	499
6	1	1	1	1	499
7	1	1	1	1	499
8	1	1	1	1	504
9	1	1	1	1	502
10	1	1	1	1	496
11	1	1	1	1	486
12	1	1	1	1	476
13	1	1	1	1	480
14	1	1	1	1	487
15	1	1	1	1	483
0	1	1	1	1	483
1	1	1	1	1	483
2	1	1	1	1	492
3	1	1	1	1	496
4	1	1	1	1	496
5	1	1	1	1	496
6	1	1	1	1	496
7	1	1	1	1	496
8	1	1	1	1	494
9	1	1	1	1	494
10	1	1	1	1	494
11	1	1	1	1	494
12	1	1	1	1	494
13	1	1	1	1	492
14	1	1	1	1	494
15	1	1	1	1	496
0	1	1	1	1	496
1	1	1	1	1	496
2	1	1	1	1	496
3	1	1	1	1	494
4	1	1	1	1	492
5	1	1	1	1	492
6	1	1	1	1	492
7	1	1	1	1	492
8	1	1	1	1	492
9	1	1	1	1	492
10	1	1	1	1	492
11	1	1	1	1	492
12	1	1	1	1	496
13	1	1	1	1	496
14	1	1	1	1	496
15	1	1	1	1	494
0	1	1	1	1	494
1	1	1	1	1	496
2	1	1	1	1	496
3	1	1	1	1	496
4	1	1	1	1	492
5	1	1	1	1	494
6	1	1	1	1	494
7	1	1	1	1	494
8	1	1	1	1	492
9	1	1	1	1	494
10	1	1	1	1	492
11	1	1	1	1	492
12	1	1	1	1	487
13	1	1	1	1	487
14	1	1	1	1	487
15	1	1	1	1	487
0	1	1	1	1	487
1	1	1	1	1	487
2	1	1	1	1	489
3	1	1	1	1	492
4	1	1	1	1	495
5	1	1	1	1	496
6	1	1	1	1	496
7	1	1	1	1	494
8	1	1	1	1	492
9	1	1	1	1	492
10	1	1	1	1	496
11	1	1	1	1	496
12	1	1	1	1	496
13	1	1	1	1	496
14	1	1	1	1	492
15	1	1	1	1	492
0	1	1	1	1	487
1	1	1	1	1	478
2	1	1	1	1	483
3	1	1	1	1	494
4	1	1	1	1	494
5	1	1	1	1	495
6	1	1	1	1	496
7	1	1	1	1	496
8	1	1	1	1	494
9	1	1	1	1	494
10	1	1	1	1	487
11	1	1	1	1	481
12	1	1	1	1	494
13	1	1	1	1	499
14	1	1	1	1	497
15	1	1	1	1	494
0	1	1	1	1	486
1	1	1	1	1	483
2	1	1	1	1	487
3	1	1	1	1	487
4	1	1	1	1	483
5	1	1	1	1	483
6	1	1	1	1	487
7	1	1	1	1	487
8	1	1	1	1	483
9	1	1	1	1	481
10	1	1	1	1	483
11	1	1	1	1	483
12	1	1	1	1	483
13	1	1	1	1	487
14	1	1	1	1	487
15	1	1	1	1	492
0	1	1	1	1	494
1	1	1	1	1	496
2	1	1	1	1	496
3	1	1	1	1	496
4	1	1	1	1	494
5	1	1	1	1	487
6	1	1	1	1	487
7	1	1	1	1	487
8	1	1	1	1	487
9	1	1	1	1	483
10	1	1	1	1	487
11	1	1	1	1	487
12	1	1	1	1	487
13	1	1	1	1	487
14	1	1	1	1	483
15	1	1	1	1	487
0	1	1	1	1	487
1	1	1	1	1	487
2	1	1	1	1	487
3	1	1	1	1	487
4	1	1	1	1	487
5	1	1	1	1	487
6	1	1	1	1	487
7	1	1	1	1	487
8	1	1	1	1	487
9	1	1	1	1	487
10	1	1	1	1	487
11	1	1	1	1	487
12	1	1	1	1	489
13	1	1	1	1	489
14	1	1	1	1	492
15	1	1	1	1	492
0	1	1	1	1	494
1	1	1	1	1	494
2	1	1	1	1	494
3	1	1	1	1	492
4	1	1	1	1	489
5	1	1	1	1	487
6	1	1	1	1	487
7	1	1	1	1	480
8	1	1	1	1	480
9	1	1	1	1	487
10	1	1	1	1	487
11	1	1	1	1	487
12	1	1	1	1	487
13	1	1	1	1	487
14	1	1	1	1	487
15	1	1	1	1	487
0	1	1	1	1	487
1	1	1	1	1	483
2	1	1	1	1	483
3	1	1	1	1	483
4	1	1	1	1	483
5	1	1	1	1	483
6	1	1	1	1	483
7	1	1	1	1	486
8	1	1	1	1	487
9	1	1	1	1	487
10	1	1	1	1	487
11	1	1	1	1	487
12	1	1	1	1	487
13	1	1	1	1	487
14	1	1	1	1	487
15	1	1	1	1	487
0	1	1	1	1	487
1	1	1	1	1	487
2	1	1	1	1	487
3	1	1	1	1	487
4	1	1	1	1	492
5	1	1	1	1	492
6	1	1	1	1	489
7	1	1	1	1	487
8	1	1	1	1	483
9	1	1	1	1	483
10	1	1	1	1	483
11	1	1	1	1	480
12	1	1	1	1	478
13	1	1	1	1	480
14	1	1	1	1	483
15	1	1	1	1	486
0	1	1	1	1	487
1	1	1	1	1	487
2	1	1	1	1	492
3	1	1	1	1	494
4	1	1	1	1	496
5	1	1	1	1	496
6	1	1	1	1	496
7	1	1	1	1	496
8	1	1	1	1	494
9	1	1	1	1	487
10	1	1	1	1	492
11	1	1	1	1	487
12	1	1	1	1	483
13	1	1	1	1	480
14	1	1	1	1	480
15	1	1	1	1	476
0	1	1	1	1	480
1	1	1	1	1	483
2	1	1	1	1	487
3	1	1	1	1	487
4	1	1	1	1	487
5	1	1	1	1	492
6	1	1	1	1	492
7	1	1	1	1	486
8	1	1	1	1	480
9	1	1	1	1	483
10	1	1	1	1	487
11	1	1	1	1	487
12	1	1	1	1	487
13	1	1	1	1	487
14	1	1	1	1	487
15	1	1	1	1	487
0	1	1	1	1	487
1	1	1	1	1	487
2	1	1	1	1	483
3	1	1	1	1	480
4	1	1	1	1	473
5	1	1	1	1	476
6	1	1	1	1	480
7	1	1	1	1	480
8	1	1	1	1	481
9	1	1	1	1	483
10	1	1	1	1	486
11	1	1	1	1	483
12	1	1	1	1	483
13	1	1	1	1	483
14	1	1	1	1	483
15	1	1	1	1	483
0	1	1	1	1	486
1	1	1	1	1	483
2	1	1	1	1	483
3	1	1	1	1	483
4	1	1	1	1	483
5	1	1	1	1	483
6	1	1	1	1	481
7	1	1	1	1	481
8	1	1	1	1	481
9	1	1	1	1	483
10	1	1	1	1	487
11	1	1	1	1	492
12	1	1	1	1	494
13	1	1	1	1	494
14	1	1	1	1	492
15	1	1	1	1	494
0	1	1	1	1	494
1	1	1	1	1	492
2	1	1	1	1	487
3	1	1	1	1	487
4	1	1	1	1	483
5	1	1	1	1	483
6	1	1	1	1	481
7	1	1	1	1	480
8	1	1	1	1	483
9	1	1	1	1	486
10	1	1	1	1	487
11	1	1	1	1	487
12	1	1	1	1	487
13	1	1	1	1	487
14	1	1	1	1	487
15	1	1	1	1	487
0	1	1	1	1	487
1	1	1	1	1	487
2	1	1	1	1	487
3	1	1	1	1	487
4	1	1	1	1	487
5	1	1	1	1	487
6	1	1	1	1	487
7	1	1	1	1	487
8	1	1	1	1	487
9	1	1	1	1	487
10	1	1	1	1	487
11	1	1	1	1	492
12	1	1	1	1	492
13	1	1	1	1	492
14	1	1	1	1	489
15	1	1	1	1	489
0	1	1	1	1	492
1	1	1	1	1	496
2	1	1	1	1	497
3	1	1	1	1	499
4	1	1	1	1	499
5	1	1	1	1	499
6	1	1	1	1	497
7	1	1	1	1	492
8	1	1	1	1	480
9	1	1	1	1	480
10	1	1	1	1	487
11	1	1	1	1	492
12	1	1	1	1	492
13	1	1	1	1	492
14	1	1	1	1	487
15	1	1	1	1	483
0	1	1	1	1	476
1	1	1	1	1	480
2	1	1	1	1	486
3	1	1	1	1	487
4	1	1	1	1	487
5	1	1	1	1	487
6	1	1	1	1	487
7	1	1	1	1	487
8	1	1	1	1	492
9	1	1	1	1	492
10	1	1	1	1	492
11	1	1	1	1	492
12	1	1	1	1	494
13	1	1	1	1	494
14	1	1	1	1	492
15	1	1	1	1	492
0	1	1	1	1	492
1	1	1	1	1	492
2	1	1	1	1	492
3	1	1	1	1	489
4	1	1	1	1	487
5	1	1	1	1	487
6	1	1	1	1	487
7	1	1	1	1	487
8	1	1	1	1	487
9	1	1	1	1	489
10	1	1	1	1	494
11	1	1	1	1	496
12	1	1	1	1	496
13	1	1	1	1	497
14	1	1	1	1	497
15	1	1	1	1	496
0	1	1	1	1	492
1	1	1	1	1	487
2	1	1	1	1	483
3	1	1	1	1	483
4	1	1	1	1	487
5	1	1	1	1	487
6	1	1	1	1	487
7	1	1	1	1	487
8	1	1	1	1	487
9	1	1	1	1	487
10	1	1	1	1	486
11	1	1	1	1	486
12	1	1	1	1	481
13	1	1	1	1	480
14	1	1	1	1	487
15	1	1	1	1	492
0	1	1	1	1	494
1	1	1	1	1	492
2	1	1	1	1	492
3	1	1	1	1	492
4	1	1	1	1	487
5	1	1	1	1	487
6	1	1	1	1	487
7	1	1	1	1	487
8	1	1	1	1	487
9	1	1	1	1	487
10	1	1	1	1	487
11	1	1	1	1	487
12	1	1	1	1	487
13	1	1	1	1	487
14	1	1	1	1	487
15	1	1	1	1	487
0	1	1	1	1	487
1	1	1	1	1	487
2	1	1	1	1	487
3	1	1	1	1	492
4	1	1	1	1	492
5	1	1	1	1	494
6	1	1	1	1	496
7	1	1	1	1	496
8	1	1	1	1	496
9	1	1	1	1	496
10	1	1	1	1	494
11	1	1	1	1	492
12	1	1	1	1	483
13	1	1	1	1	478
14	1	1	1	1	480
15	1	1	1	1	483
0	1	1	1	1	486
1	1	1	1	1	486
2	1	1	1	1	486
3	1	1	1	1	486
4	1	1	1	1	486
5	1	1	1	1	483
6	1	1	1	1	486
7	1	1	1	1	487
8	1	1	1	1	487
9	1	1	1	1	487
10	1	1	1	1	487
11	1	1	1	1	487
12	1	1	1	1	489
13	1	1	1	1	492
14	1	1	1	1	492
15	1	1	1	1	492
0	1	1	1	1	487
1	1	1	1	1	483
2	1	1	1	1	486
3	1	1	1	1	486
4	1	1	1	1	486
5	1	1	1	1	486
6	1	1	1	1	487
7	1	1	1	1	487
8	1	1	1	1	492
9	1	1	1	1	492
10	1	1	1	1	489
11	1	1	1	1	494
12	1	1	1	1	494
13	1	1	1	1	496
14	1	1	1	1	495
15	1	1	1	1	492
0	1	1	1	1	492
1	1	1	1	1	487
2	1	1	1	1	487
3	1	1	1	1	483
4	1	1	1	1	480
5	1	1	1	1	487
6	1	1	1	1	491
7	1	1	1	1	487
8	1	1	1	1	491
9	1	1	1	1	489
10	1	1	1	1	487
11	1	1	1	1	487
12	1	1	1	1	487
13	1	1	1	1	487
14	1	1	1	1	487
15	1	1	1	1	494
0	1	1	1	1	496
1	1	1	1	1	497
2	1	1	1	1	496
3	1	1	1	1	496
4	1	1	1	1	494
5	1	1	1	1	492
6	1	1	1	1	489
7	1	1	1	1	487
8	1	1	1	1	483
9	1	1	1	1	483
10	1	1	1	1	487
11	1	1	1	1	487
12	1	1	1	1	487
13	1	1	1	1	492
14	1	1	1	1	492
15	1	1	1	1	496
0	1	1	1	1	496
1	1	1	1	1	496
2	1	1	1	1	496
3	1	1	1	1	492
4	1	1	1	1	489
5	1	1	1	1	494
6	1	1	1	1	487
7	1	1	1	1	483
8	1	1	1	1	487
9	1	1	1	1	492
10	1	1	1	1	492
11	1	1	1	1	492
12	1	1	1	1	492
13	1	1	1	1	492
14	1	1	1	1	487
15	1	1	1	1	487
0	1	1	1	1	487
1	1	1	1	1	483
2	1	1	1	1	487
3	1	1	1	1	487
4	1	1	1	1	487
5	1	1	1	1	492
6	1	1	1	1	494
7	1	1	1	1	494
8	1	1	1	1	494
9	1	1	1	1	492
10	1	1	1	1	494
11	1	1	1	1	495
12	1	1	1	1	496
13	1	1	1	1	496
14	1	1	1	1	496
15	1	1	1	1	495
0	1	1	1	1	494
1	1	1	1	1	496
2	1	1	1	1	496
3	1	1	1	1	494
4	1	1	1	1	492
5	1	1	1	1	496
6	1	1	1	1	494
7	1	1	1	1	492
8	1	1	1	1	494
9	1	1	1	1	496
10	1	1	1	1	496
11	1	1	1	1	497
12	1	1	1	1	499
13	1	1	1	1	499
14	1	1	1	1	497
15	1	1	1	1	496
0	1	1	1	1	487
1	1	1	1	1	487
2	1	1	1	1	492
3	1	1	1	1	492
4	1	1	1	1	492
5	1	1	1	1	492
6	1	1	1	1	492
7	1	1	1	1	492
8	1	1	1	1	492
9	1	1	1	1	494
10	1	1	1	1	495
11	1	1	1	1	496
12	1	1	1	1	496
13	1	1	1	1	494
14	1	1	1	1	494
15	1	1	1	1	496
0	1	1	1	1	496
1	1	1	1	1	496
2	1	1	1	1	496
3	1	1	1	1	496
4	1	1	1	1	496
5	1	1	1	1	496
6	1	1	1	1	496
7	1	1	1	1	496
8	1	1	1	1	496
9	1	1	1	1	494
10	1	1	1	1	492
11	1	1	1	1	487
12	1	1	1	1	492
13	1	1	1	1	496
14	1	1	1	1	496
15	1	1	1	1	496
0	1	1	1	1	499
1	1	1	1	1	499
2	1	1	1	1	496
3	1	1	1	1	494
4	1	1	1	1	483
5	1	1	1	1	476
6	1	1	1	1	492
7	1	1	1	1	496
8	1	1	1	1	497
9	1	1	1	1	497
10	1	1	1	1	496
11	1	1	1	1	496
12	1	1	1	1	496
13	1	1	1	1	496
14	1	1	1	1	496
15	1	1	1	1	496
0	1	1	1	1	492
1	1	1	1	1	492
2	1	1	1	1	492
3	1	1	1	1	494
4	1	1	1	1	494
5	1	1	1	1	494
6	1	1	1	1	494
7	1	1	1	1	496
8	1	1	1	1	496
9	1	1	1	1	499
10	1	1	1	1	499
11	1	1	1	1	499
12	1	1	1	1	499
13	1	1	1	1	499
14	1	1	1	1	497
15	1	1	1	1	496
0	1	1	1	1	496
1	1	1	1	1	496
2	1	1	1	1	496
3	1	1	1	1	492
4	1	1	1	1	492
5	1	1	1	1	492
6	1	1	1	1	492
7	1	1	1	1	492
8	1	1	1	1	492
9	1	1	1	1	492
10	1	1	1	1	492
11	1	1	1	1	494
12	1	1	1	1	497
13	1	1	1	1	499
14	1	1	1	1	499
15	1	1	1	1	502
0	1	1	1	1	504
1	1	1	1	1	504
2	1	1	1	1	504
3	1	1	1	1	499
4	1	1	1	1	496
5	1	1	1	1	496
6	1	1	1	1	492
7	1	1	1	1	481
8	1	1	1	1	481
9	1	1	1	1	487
10	1	1	1	1	487
11	1	1	1	1	487
12	1	1	1	1	489
13	1	1	1	1	492
14	1	1	1	1	492
15	1	1	1	1	492
0	1	1	1	1	494
1	1	1	1	1	496
2	1	1	1	1	496
3	1	1	1	1	495
4	1	1	1	1	494
5	1	1	1	1	494
6	1	1	1	1	492
7	1	1	1	1	494
8	1	1	1	1	496
9	1	1	1	1	496
10	1	1	1	1	494
11	1	1	1	1	496
12	1	1	1	1	496
13	1	1	1	1	496
14	1	1	1	1	492
15	1	1	1	1	483
0	1	1	1	1	483
1	1	1	1	1	489
2	1	1	1	1	487
3	1	1	1	1	492
4	1	1	1	1	496
5	1	1	1	1	496
6	1	1	1	1	497
7	1	1	1	1	496
8	1	1	1	1	496
9	1	1	1	1	496
10	1	1	1	1	492
11	1	1	1	1	487
12	1	1	1	1	487
13	1	1	1	1	492
14	1	1	1	1	492
15	1	1	1	1	492
0	1	1	1	1	492
1	1	1	1	1	492
2	1	1	1	1	492
3	1	1	1	1	492
4	1	1	1	1	492
5	1	1	1	1	492
6	1	1	1	1	492
7	1	1	1	1	492
8	1	1	1	1	494
9	1	1	1	1	494
10	1	1	1	1	494
11	1	1	1	1	494
12	1	1	1	1	492
13	1	1	1	1	487
14	1	1	1	1	487
15	1	1	1	1	487
0	1	1	1	1	487
1	1	1	1	1	494
2	1	1	1	1	496
3	1	1	1	1	496
4	1	1	1	1	494
5	1	1	1	1	496
6	1	1	1	1	496
7	1	1	1	1	497
8	1	1	1	1	496
9	1	1	1	1	487
10	1	1	1	1	486
11	1	1	1	1	489
12	1	1	1	1	494
13	1	1	1	1	494
14	1	1	1	1	496
15	1	1	1	1	494
0	1	1	1	1	492
1	1	1	1	1	494
2	1	1	1	1	496
3	1	1	1	1	496
4	1	1	1	1	494
5	1	1	1	1	492
6	1	1	1	1	492
7	1	1	1	1	492
8	1	1	1	1	487
9	1	1	1	1	487
10	1	1	1	1	487
11	1	1	1	1	487
12	1	1	1	1	487
13	1	1	1	1	487
14	1	1	1	1	487
15	1	1	1	1	489
0	1	1	1	1	492
1	1	1	1	1	492
2	1	1	1	1	494
3	1	1	1	1	494
4	1	1	1	1	492
5	1	1	1	1	492
6	1	1	1	1	487
7	1	1	1	1	487
8	1	1	1	1	487
9	1	1	1	1	487
10	1	1	1	1	487
11	1	1	1	1	487
12	1	1	1	1	487
13	1	1	1	1	486
14	1	1	1	1	487
15	1	1	1	1	486
0	1	1	1	1	486
1	1	1	1	1	487
2	1	1	1	1	492
3	1	1	1	1	494
4	1	1	1	1	497
5	1	1	1	1	497
6	1	1	1	1	496
7	1	1	1	1	496
8	1	1	1	1	496
9	1	1	1	1	492
10	1	1	1	1	486
11	1	1	1	1	480
12	1	1	1	1	480
13	1	1	1	1	483
14	1	1	1	1	483
15	1	1	1	1	481
0	1	1	1	1	478
1	1	1	1	1	480
2	1	1	1	1	487
3	1	1	1	1	492
4	1	1	1	1	492
5	1	1	1	1	492
6	1	1	1	1	492
7	1	1	1	1	487
8	1	1	1	1	487
9	1	1	1	1	486
10	1	1	1	1	487
11	1	1	1	1	487
12	1	1	1	1	487
13	1	1	1	1	487
14	1	1	1	1	487
15	1	1	1	1	487
0	1	1	1	1	487
1	1	1	1	1	481
2	1	1	1	1	480
3	1	1	1	1	481
4	1	1	1	1	483
5	1	1	1	1	483
6	1	1	1	1	486
7	1	1	1	1	483
8	1	1	1	1	483
9	1	1	1	1	483
10	1	1	1	1	480
11	1	1	1	1	483
12	1	1	1	1	487
13	1	1	1	1	492
14	1	1	1	1	487
15	1	1	1	1	487
0	1	1	1	1	487
1	1	1	1	1	487
2	1	1	1	1	487
3	1	1	1	1	487
4	1	1	1	1	487
5	1	1	1	1	487
6	1	1	1	1	492
7	1	1	1	1	492
8	1	1	1	1	489
9	1	1	1	1	492
10	1	1	1	1	487
11	1	1	1	1	487
12	1	1	1	1	487
13	1	1	1	1	483
14	1	1	1	1	478
15	1	1	1	1	481
0	1	1	1	1	487
1	1	1	1	1	487
2	1	1	1	1	487
3	1	1	1	1	486
4	1	1	1	1	483
5	1	1	1	1	487
6	1	1	1	1	487
7	1	1	1	1	487
8	1	1	1	1	483
9	1	1	1	1	483
10	1	1	1	1	480
11	1	1	1	1	481
12	1	1	1	1	480
13	1	1	1	1	481
14	1	1	1	1	483
15	1	1	1	1	483
0	1	1	1	1	480
1	1	1	1	1	481
2	1	1	1	1	481
3	1	1	1	1	483
4	1	1	1	1	483
5	1	1	1	1	486
6	1	1	1	1	487
7	1	1	1	1	487
8	1	1	1	1	492
9	1	1	1	1	492
10	1	1	1	1	492
11	1	1	1	1	492
12	1	1	1	1	487
13	1	1	1	1	483
14	1	1	1	1	478
15	1	1	1	1	472
0	1	1	1	1	480
1	1	1	1	1	480
2	1	1	1	1	476
3	1	1	1	1	478
4	1	1	1	1	480
5	1	1	1	1	481
6	1	1	1	1	481
7	1	1	1	1	483
8	1	1	1	1	486
9	1	1	1	1	486
10	1	1	1	1	483
11	1	1	1	1	480
12	1	1	1	1	480
13	1	1	1	1	483
14	1	1	1	1	483
15	1	1	1	1	483
0	1	1	1	1	483
1	1	1	1	1	481
2	1	1	1	1	480
3	1	1	1	1	481
4	1	1	1	1	480
5	1	1	1	1	481
6	1	1	1	1	483
7	1	1	1	1	481
8	1	1	1	1	481
9	1	1	1	1	483
10	1	1	1	1	483
11	1	1	1	1	483
12	1	1	1	1	486
13	1	1	1	1	487
14	1	1	1	1	487
15	1	1	1	1	487
0	1	1	1	1	487
1	1	1	1	1	487
2	1	1	1	1	487
3	1	1	1	1	487
4	1	1	1	1	486
5	1	1	1	1	486
6	1	1	1	1	483
7	1	1	1	1	483
8	1	1	1	1	483
9	1	1	1	1	483
10	1	1	1	1	483
11	1	1	1	1	483
12	1	1	1	1	486
13	1	1	1	1	487
14	1	1	1	1	487
15	1	1	1	1	487
0	1	1	1	1	487
1	1	1	1	1	487
2	1	1	1	1	487
3	1	1	1	1	487
4	1	1	1	1	487
5	1	1	1	1	487
6	1	1	1	1	487
7	1	1	1	1	487
8	1	1	1	1	487
9	1	1	1	1	487
10	1	1	1	1	487
11	1	1	1	1	487
12	1	1	1	1	487
13	1	1	1	1	487
14	1	1	1	1	487
15	1	1	1	1	487
0	1	1	1	1	487
1	1	1	1	1	483
2	1	1	1	1	487
3	1	1	1	1	487
4	1	1	1	1	487
5	1	1	1	1	487
6	1	1	1	1	487
7	1	1	1	1	487
8	1	1	1	1	487
9	1	1	1	1	487
10	1	1	1	1	487
11	1	1	1	1	486
12	1	1	1	1	487
13	1	1	1	1	486
14	1	1	1	1	483
15	1	1	1	1	483
0	1	1	1	1	486
1	1	1	1	1	486
2	1	1	1	1	483
3	1	1	1	1	486
4	1	1	1	1	487
5	1	1	1	1	487
6	1	1	1	1	487
7	1	1	1	1	492
8	1	1	1	1	492
9	1	1	1	1	492
10	1	1	1	1	492
11	1	1	1	1	487
12	1	1	1	1	487
13	1	1	1	1	487
14	1	1	1	1	487
15	1	1	1	1	486
0	1	1	1	1	483
1	1	1	1	1	483
2	1	1	1	1	483
3	1	1	1	1	486
4	1	1	1	1	483
5	1	1	1	1	486
6	1	1	1	1	486
7	1	1	1	1	494
8	1	1	1	1	504
9	1	1	1	1	504
10	1	1	1	1	499
11	1	1	1	1	499
12	1	1	1	1	497
13	1	1	1	1	496
14	1	1	1	1	492
15	1	1	1	1	492
0	1	1	1	1	492
1	1	1	1	1	487
2	1	1	1	1	483
3	1	1	1	1	480
4	1	1	1	1	480
5	1	1	1	1	480
6	1	1	1	1	483
7	1	1	1	1	483
8	1	1	1	1	487
9	1	1	1	1	487
10	1	1	1	1	489
11	1	1	1	1	494
12	1	1	1	1	504
13	1	1	1	1	508
14	1	1	1	1	512
15	1	1	1	1	515
0	1	1	1	1	515
1	1	1	1	1	513
2	1	1	1	1	511
3	1	1	1	1	505
4	1	1	1	1	502
5	1	1	1	1	496
6	1	1	1	1	487
7	1	1	1	1	486
8	1	1	1	1	483
9	1	1	1	1	481
10	1	1	1	1	478
11	1	1	1	1	476
12	1	1	1	1	476
13	1	1	1	1	483
14	1	1	1	1	487
15	1	1	1	1	487
0	1	1	1	1	492
1	1	1	1	1	496
2	1	1	1	1	504
3	1	1	1	1	508
4	1	1	1	1	524
5	1	1	1	1	536
6	1	1	1	1	537
7	1	1	1	1	540
8	1	1	1	1	531
9	1	1	1	1	526
10	1	1	1	1	526
11	1	1	1	1	511
12	1	1	1	1	508
13	1	1	1	1	496
14	1	1	1	1	492
15	1	1	1	1	502
0	1	1	1	1	504
1	1	1	1	1	504
2	1	1	1	1	494
3	1	1	1	1	481
4	1	1	1	1	480
5	1	1	1	1	473
6	1	1	1	1	467
7	1	1	1	1	467
8	1	1	1	1	476
9	1	1	1	1	486
10	1	1	1	1	487
11	1	1	1	1	483
12	1	1	1	1	487
13	1	1	1	1	504
14	1	1	1	1	512
15	1	1	1	1	513
0	1	1	1	1	505
1	1	1	1	1	496
2	1	1	1	1	481
3	1	1	1	1	472
4	1	1	1	1	478
5	1	1	1	1	487
6	1	1	1	1	489
7	1	1	1	1	483
8	1	1	1	1	476
9	1	1	1	1	472
10	1	1	1	1	472
11	1	1	1	1	480
12	1	1	1	1	492
13	1	1	1	1	499
14	1	1	1	1	494
15	1	1	1	1	499
0	1	1	1	1	508
1	1	1	1	1	511
2	1	1	1	1	511
3	1	1	1	1	505
4	1	1	1	1	511
5	1	1	1	1	527
6	1	1	1	1	536
7	1	1	1	1	524
8	1	1	1	1	499
9	1	1	1	1	487
10	1	1	1	1	486
11	1	1	1	1	465
12	1	1	1	1	460
13	1	1	1	1	455
14	1	1	1	1	440
15	1	1	1	1	432
0	1	1	1	1	440
1	1	1	1	1	440
2	1	1	1	1	448
3	1	1	1	1	467
4	1	1	1	1	472
5	1	1	1	1	473
6	1	1	1	1	483
7	1	1	1	1	504
8	1	1	1	1	551
9	1	1	1	1	583
10	1	1	1	1	604
11	1	1	1	1	615
12	1	1	1	1	600
13	1	1	1	1	569
14	1	1	1	1	543
15	1	1	1	1	512
0	1	1	1	1	481
1	1	1	1	1	481
2	1	1	1	1	480
3	1	1	1	1	463
4	1	1	1	1	451
5	1	1	1	1	440
6	1	1	1	1	483
7	1	1	1	1	513
8	1	1	1	1	524
9	1	1	1	1	550
10	1	1	1	1	563
11	1	1	1	1	558
12	1	1	1	1	540
13	1	1	1	1	511
14	1	1	1	1	487
15	1	1	1	1	455
0	1	1	1	1	412
1	1	1	1	1	352
2	1	1	1	1	303
3	1	1	1	1	295
4	1	1	1	1	326
5	1	1	1	1	352
6	1	1	1	1	376
7	1	1	1	1	403
8	1	1	1	1	428
9	1	1	1	1	433
10	1	1	1	1	448
11	1	1	1	1	462
12	1	1	1	1	487
13	1	1	1	1	508
14	1	1	1	1	536
15	1	1	1	1	547
0	1	1	1	1	536
1	1	1	1	1	543
2	1	1	1	1	568
3	1	1	1	1	615
4	1	1	1	1	593
5	1	1	1	1	583
6	1	1	1	1	568
7	1	1	1	1	558
8	1	1	1	1	543
9	1	1	1	1	521
10	1	1	1	1	505
11	1	1	1	1	467
12	1	1	1	1	455
13	1	1	1	1	483
14	1	1	1	1	496
15	1	1	1	1	536
0	1	1	1	1	595
1	1	1	1	1	627
2	1	1	1	1	615
3	1	1	1	1	609
4	1	1	1	1	588
5	1	1	1	1	560
6	1	1	1	1	561
7	1	1	1	1	527
8	1	1	1	1	508
9	1	1	1	1	480
10	1	1	1	1	430
11	1	1	1	1	403
12	1	1	1	1	415
13	1	1	1	1	403
14	1	1	1	1	408
15	1	1	1	1	428
0	1	1	1	1	423
1	1	1	1	1	391
2	1	1	1	1	337
3	1	1	1	1	327
4	1	1	1	1	327
5	1	1	1	1	300
6	1	1	1	1	339
7	1	1	1	1	376
8	1	1	1	1	398
9	1	1	1	1	423
10	1	1	1	1	463
11	1	1	1	1	494
12	1	1	1	1	511
13	1	1	1	1	527
14	1	1	1	1	547
15	1	1	1	1	551
0	1	1	1	1	568
1	1	1	1	1	588
2	1	1	1	1	591
3	1	1	1	1	585
4	1	1	1	1	583
5	1	1	1	1	591
6	1	1	1	1	608
7	1	1	1	1	583
8	1	1	1	1	492
9	1	1	1	1	454
10	1	1	1	1	478
11	1	1	1	1	481
12	1	1	1	1	467
13	1	1	1	1	451
14	1	1	1	1	462
15	1	1	1	1	467
0	1	1	1	1	480
1	1	1	1	1	519
2	1	1	1	1	527
3	1	1	1	1	513
4	1	1	1	1	524
5	1	1	1	1	519
6	1	1	1	1	536
7	1	1	1	1	536
8	1	1	1	1	521
9	1	1	1	1	542
10	1	1	1	1	536
11	1	1	1	1	515
12	1	1	1	1	499
13	1	1	1	1	499
14	1	1	1	1	492
15	1	1	1	1	476
0	1	1	1	1	480
1	1	1	1	1	435
2	1	1	1	1	403
3	1	1	1	1	399
4	1	1	1	1	391
5	1	1	1	1	391
6	1	1	1	1	399
7	1	1	1	1	467
8	1	1	1	1	487
9	1	1	1	1	496
10	1	1	1	1	511
11	1	1	1	1	550
12	1	1	1	1	476
13	1	1	1	1	409
14	1	1	1	1	419
15	1	1	1	1	487
0	1	1	1	1	515
1	1	1	1	1	524
2	1	1	1	1	536
3	1	1	1	1	543
4	1	1	1	1	518
5	1	1	1	1	448
6	1	1	1	1	399
7	1	1	1	1	353
8	1	1	1	1	368
9	1	1	1	1	417
10	1	1	1	1	428
11	1	1	1	1	419
12	1	1	1	1	408
13	1	1	1	1	460
14	1	1	1	1	531
15	1	1	1	1	547
0	1	1	1	1	572
1	1	1	1	1	588
2	1	1	1	1	551
3	1	1	1	1	551
4	1	1	1	1	591
5	1	1	1	1	569
6	1	1	1	1	510
7	1	1	1	1	492
8	1	1	1	1	542
9	1	1	1	1	540
10	1	1	1	1	487
11	1	1	1	1	494
12	1	1	1	1	476
13	1	1	1	1	487
14	1	1	1	1	523
15	1	1	1	1	543
0	1	1	1	1	551
1	1	1	1	1	574
2	1	1	1	1	531
3	1	1	1	1	448
4	1	1	1	1	396
5	1	1	1	1	335
6	1	1	1	1	359
7	1	1	1	1	415
8	1	1	1	1	448
9	1	1	1	1	480
10	1	1	1	1	463
11	1	1	1	1	440
12	1	1	1	1	428
13	1	1	1	1	478
14	1	1	1	1	492
15	1	1	1	1	460
0	1	1	1	1	423
1	1	1	1	1	412
2	1	1	1	1	435
3	1	1	1	1	499
4	1	1	1	1	543
5	1	1	1	1	540
6	1	1	1	1	492
7	1	1	1	1	519
8	1	1	1	1	531
9	1	1	1	1	572
10	1	1	1	1	568
11	1	1	1	1	515
12	1	1	1	1	441
13	1	1	1	1	415
14	1	1	1	1	496
15	1	1	1	1	487
0	1	1	1	1	494
1	1	1	1	1	504
2	1	1	1	1	481
3	1	1	1	1	547
4	1	1	1	1	583
5	1	1	1	1	536
6	1	1	1	1	472
7	1	1	1	1	478
8	1	1	1	1	463
9	1	1	1	1	352
10	1	1	1	1	284
11	1	1	1	1	345
12	1	1	1	1	465
13	1	1	1	1	575
14	1	1	1	1	627
15	1	1	1	1	652
0	1	1	1	1	675
1	1	1	1	1	624
2	1	1	1	1	560
3	1	1	1	1	473
4	1	1	1	1	352
5	1	1	1	1	337
6	1	1	1	1	412
7	1	1	1	1	504
8	1	1	1	1	608
9	1	1	1	1	608
10	1	1	1	1	604
11	1	1	1	1	593
12	1	1	1	1	543
13	1	1	1	1	463
14	1	1	1	1	398
15	1	1	1	1	399
0	1	1	1	1	376
1	1	1	1	1	327
2	1	1	1	1	368
3	1	1	1	1	417
4	1	1	1	1	449
5	1	1	1	1	496
6	1	1	1	1	487
7	1	1	1	1	455
8	1	1	1	1	448
9	1	1	1	1	455
10	1	1	1	1	480
11	1	1	1	1	524
12	1	1	1	1	543
13	1	1	1	1	575
14	1	1	1	1	547
15	1	1	1	1	513
0	1	1	1	1	518
1	1	1	1	1	499
2	1	1	1	1	455
3	1	1	1	1	462
4	1	1	1	1	470
5	1	1	1	1	460
6	1	1	1	1	531
7	1	1	1	1	543
8	1	1	1	1	504
9	1	1	1	1	512
10	1	1	1	1	553
11	1	1	1	1	518
12	1	1	1	1	473
13	1	1	1	1	440
14	1	1	1	1	366
15	1	1	1	1	398
0	1	1	1	1	449
1	1	1	1	1	414
2	1	1	1	1	371
3	1	1	1	1	368
4	1	1	1	1	463
5	1	1	1	1	531
6	1	1	1	1	526
7	1	1	1	1	487
8	1	1	1	1	423
9	1	1	1	1	432
10	1	1	1	1	486
11	1	1	1	1	511
12	1	1	1	1	496
13	1	1	1	1	508
14	1	1	1	1	543
15	1	1	1	1	588
0	1	1	1	1	583
1	1	1	1	1	551
2	1	1	1	1	536
3	1	1	1	1	494
4	1	1	1	1	492
5	1	1	1	1	524
6	1	1	1	1	480
7	1	1	1	1	463
8	1	1	1	1	480
9	1	1	1	1	460
10	1	1	1	1	481
11	1	1	1	1	496
12	1	1	1	1	492
13	1	1	1	1	483
14	1	1	1	1	481
15	1	1	1	1	467
0	1	1	1	1	428
1	1	1	1	1	441
2	1	1	1	1	448
3	1	1	1	1	422
4	1	1	1	1	440
5	1	1	1	1	465
6	1	1	1	1	519
7	1	1	1	1	556
8	1	1	1	1	600
9	1	1	1	1	639
10	1	1	1	1	668
11	1	1	1	1	550
12	1	1	1	1	455
13	1	1	1	1	455
14	1	1	1	1	433
15	1	1	1	1	448
0	1	1	1	1	444
1	1	1	1	1	455
2	1	1	1	1	492
3	1	1	1	1	492
4	1	1	1	1	526
5	1	1	1	1	496
6	1	1	1	1	472
7	1	1	1	1	487
8	1	1	1	1	467
9	1	1	1	1	499
10	1	1	1	1	542
11	1	1	1	1	519
12	1	1	1	1	519
13	1	1	1	1	504
14	1	1	1	1	472
15	1	1	1	1	480
0	1	1	1	1	432
1	1	1	1	1	415
2	1	1	1	1	391
3	1	1	1	1	323
4	1	1	1	1	387
5	1	1	1	1	492
6	1	1	1	1	473
7	1	1	1	1	440
8	1	1	1	1	448
9	1	1	1	1	480
10	1	1	1	1	504
11	1	1	1	1	497
12	1	1	1	1	510
13	1	1	1	1	563
14	1	1	1	1	568
15	1	1	1	1	543
0	1	1	1	1	512
1	1	1	1	1	511
2	1	1	1	1	536
3	1	1	1	1	540
4	1	1	1	1	499
5	1	1	1	1	428
6	1	1	1	1	440
7	1	1	1	1	440
8	1	1	1	1	355
9	1	1	1	1	337
10	1	1	1	1	440
11	1	1	1	1	510
12	1	1	1	1	499
13	1	1	1	1	515
14	1	1	1	1	480
15	1	1	1	1	401
0	1	1	1	1	387
1	1	1	1	1	448
2	1	1	1	1	463
3	1	1	1	1	512
4	1	1	1	1	543
5	1	1	1	1	537
6	1	1	1	1	543
7	1	1	1	1	519
8	1	1	1	1	508
9	1	1	1	1	496
10	1	1	1	1	508
11	1	1	1	1	563
12	1	1	1	1	568
13	1	1	1	1	534
14	1	1	1	1	470
15	1	1	1	1	486
0	1	1	1	1	415
1	1	1	1	1	428
2	1	1	1	1	502
3	1	1	1	1	504
4	1	1	1	1	547
5	1	1	1	1	600
6	1	1	1	1	574
7	1	1	1	1	551
8	1	1	1	1	465
9	1	1	1	1	399
10	1	1	1	1	371
11	1	1	1	1	364
12	1	1	1	1	440
13	1	1	1	1	451
14	1	1	1	1	422
15	1	1	1	1	441
0	1	1	1	1	444
1	1	1	1	1	446
2	1	1	1	1	496
3	1	1	1	1	527
4	1	1	1	1	463
5	1	1	1	1	497
6	1	1	1	1	526
7	1	1	1	1	511
8	1	1	1	1	487
9	1	1	1	1	448
10	1	1	1	1	403
11	1	1	1	1	423
12	1	1	1	1	504
13	1	1	1	1	536
14	1	1	1	1	536
15	1	1	1	1	534
0	1	1	1	1	524
1	1	1	1	1	481
2	1	1	1	1	455
3	1	1	1	1	449
4	1	1	1	1	472
5	1	1	1	1	511
6	1	1	1	1	492
7	1	1	1	1	531
8	1	1	1	1	536
9	1	1	1	1	460
10	1	1	1	1	433
11	1	1	1	1	448
12	1	1	1	1	463
13	1	1	1	1	467
14	1	1	1	1	428
15	1	1	1	1	352
0	1	1	1	1	366
1	1	1	1	1	448
2	1	1	1	1	435
3	1	1	1	1	415
4	1	1	1	1	384
5	1	1	1	1	423
6	1	1	1	1	472
7	1	1	1	1	508
8	1	1	1	1	519
9	1	1	1	1	512
10	1	1	1	1	492
11	1	1	1	1	463
12	1	1	1	1	526
13	1	1	1	1	611
14	1	1	1	1	639
15	1	1	1	1	595
0	1	1	1	1	579
1	1	1	1	1	540
2	1	1	1	1	463
3	1	1	1	1	432
4	1	1	1	1	385
5	1	1	1	1	303
6	1	1	1	1	353
7	1	1	1	1	359
8	1	1	1	1	371
9	1	1	1	1	435
10	1	1	1	1	440
11	1	1	1	1	432
12	1	1	1	1	480
13	1	1	1	1	551
14	1	1	1	1	574
15	1	1	1	1	515
0	1	1	1	1	550
1	1	1	1	1	636
2	1	1	1	1	615
3	1	1	1	1	561
4	1	1	1	1	551
5	1	1	1	1	504
6	1	1	1	1	415
7	1	1	1	1	390
8	1	1	1	1	359
9	1	1	1	1	332
10	1	1	1	1	444
11	1	1	1	1	515
12	1	1	1	1	504
13	1	1	1	1	480
14	1	1	1	1	414
15	1	1	1	1	401
0	1	1	1	1	430
1	1	1	1	1	440
2	1	1	1	1	454
3	1	1	1	1	504
4	1	1	1	1	543
5	1	1	1	1	543
6	1	1	1	1	527
7	1	1	1	1	512
8	1	1	1	1	496
9	1	1	1	1	504
10	1	1	1	1	467
11	1	1	1	1	403
12	1	1	1	1	409
13	1	1	1	1	487
14	1	1	1	1	550
15	1	1	1	1	547
0	1	1	1	1	480
1	1	1	1	1	440
2	1	1	1	1	473
3	1	1	1	1	513
4	1	1	1	1	550
5	1	1	1	1	536
6	1	1	1	1	455
7	1	1	1	1	415
8	1	1	1	1	415
9	1	1	1	1	403
10	1	1	1	1	396
11	1	1	1	1	415
12	1	1	1	1	430
13	1	1	1	1	440
14	1	1	1	1	460
15	1	1	1	1	508
0	1	1	1	1	551
1	1	1	1	1	575
2	1	1	1	1	558
3	1	1	1	1	551
4	1	1	1	1	632
5	1	1	1	1	591
6	1	1	1	1	486
7	1	1	1	1	432
8	1	1	1	1	423
9	1	1	1	1	487
10	1	1	1	1	486
11	1	1	1	1	399
12	1	1	1	1	403
13	1	1	1	1	423
14	1	1	1	1	335
15	1	1	1	1	295
0	1	1	1	1	327
1	1	1	1	1	371
2	1	1	1	1	398
3	1	1	1	1	433
4	1	1	1	1	518
5	1	1	1	1	537
6	1	1	1	1	504
7	1	1	1	1	480
8	1	1	1	1	483
9	1	1	1	1	483
10	1	1	1	1	505
11	1	1	1	1	497
12	1	1	1	1	470
13	1	1	1	1	480
14	1	1	1	1	454
15	1	1	1	1	415
0	1	1	1	1	428
1	1	1	1	1	448
2	1	1	1	1	472
3	1	1	1	1	527
4	1	1	1	1	572
5	1	1	1	1	620
6	1	1	1	1	704
7	1	1	1	1	704
8	1	1	1	1	700
9	1	1	1	1	689
10	1	1	1	1	615
11	1	1	1	1	575
12	1	1	1	1	536
13	1	1	1	1	440
14	1	1	1	1	319
15	1	1	1	1	271
0	1	1	1	1	243
1	1	1	1	1	259
2	1	1	1	1	334
3	1	1	1	1	399
4	1	1	1	1	433
5	1	1	1	1	504
6	1	1	1	1	543
7	1	1	1	1	583
8	1	1	1	1	543
9	1	1	1	1	476
10	1	1	1	1	480
11	1	1	1	1	519
12	1	1	1	1	518
13	1	1	1	1	543
14	1	1	1	1	568
15	1	1	1	1	560
0	1	1	1	1	542
1	1	1	1	1	451
2	1	1	1	1	371
3	1	1	1	1	316
4	1	1	1	1	364
5	1	1	1	1	472
6	1	1	1	1	508
7	1	1	1	1	523
8	1	1	1	1	513
9	1	1	1	1	480
10	1	1	1	1	440
11	1	1	1	1	415
12	1	1	1	1	440
13	1	1	1	1	433
14	1	1	1	1	428
15	1	1	1	1	455
0	1	1	1	1	487
1	1	1	1	1	547
2	1	1	1	1	563
3	1	1	1	1	536
4	1	1	1	1	483
5	1	1	1	1	476
6	1	1	1	1	470
7	1	1	1	1	455
8	1	1	1	1	496
9	1	1	1	1	487
10	1	1	1	1	435
11	1	1	1	1	428
12	1	1	1	1	455
13	1	1	1	1	483
14	1	1	1	1	499
15	1	1	1	1	504
0	1	1	1	1	470
1	1	1	1	1	543
2	1	1	1	1	639
3	1	1	1	1	647
4	1	1	1	1	531
5	1	1	1	1	428
6	1	1	1	1	433
7	1	1	1	1	489
8	1	1	1	1	543
9	1	1	1	1	536
10	1	1	1	1	504
11	1	1	1	1	497
12	1	1	1	1	496
13	1	1	1	1	460
14	1	1	1	1	415
15	1	1	1	1	384
0	1	1	1	1	304
1	1	1	1	1	344
2	1	1	1	1	412
3	1	1	1	1	415
4	1	1	1	1	432
5	1	1	1	1	455
6	1	1	1	1	499
7	1	1	1	1	563
8	1	1	1	1	636
9	1	1	1	1	638
10	1	1	1	1	608
11	1	1	1	1	583
12	1	1	1	1	550
13	1	1	1	1	515
14	1	1	1	1	536
15	1	1	1	1	559
0	1	1	1	1	531
1	1	1	1	1	481
2	1	1	1	1	480
3	1	1	1	1	455
4	1	1	1	1	448
5	1	1	1	1	435
6	1	1	1	1	384
7	1	1	1	1	409
8	1	1	1	1	480
9	1	1	1	1	496
10	1	1	1	1	487
11	1	1	1	1	472
12	1	1	1	1	526
13	1	1	1	1	487
14	1	1	1	1	460
15	1	1	1	1	519
0	1	1	1	1	575
1	1	1	1	1	579
2	1	1	1	1	561
3	1	1	1	1	487
4	1	1	1	1	423
5	1	1	1	1	368
6	1	1	1	1	352
7	1	1	1	1	359
8	1	1	1	1	399
9	1	1	1	1	428
10	1	1	1	1	440
11	1	1	1	1	472
12	1	1	1	1	467
13	1	1	1	1	455
14	1	1	1	1	480
15	1	1	1	1	526
0	1	1	1	1	527
1	1	1	1	1	529
2	1	1	1	1	591
3	1	1	1	1	647
4	1	1	1	1	622
5	1	1	1	1	583
6	1	1	1	1	534
7	1	1	1	1	504
8	1	1	1	1	463
9	1	1	1	1	399
10	1	1	1	1	344
11	1	1	1	1	371
12	1	1	1	1	414
13	1	1	1	1	387
14	1	1	1	1	391
15	1	1	1	1	428
0	1	1	1	1	480
1	1	1	1	1	492
2	1	1	1	1	467
3	1	1	1	1	478
4	1	1	1	1	496
5	1	1	1	1	524
6	1	1	1	1	531
7	1	1	1	1	527
8	1	1	1	1	499
9	1	1	1	1	460
10	1	1	1	1	460
11	1	1	1	1	473
12	1	1	1	1	467
13	1	1	1	1	480
14	1	1	1	1	504
15	1	1	1	1	510
0	1	1	1	1	504
1	1	1	1	1	543
2	1	1	1	1	547
3	1	1	1	1	568
4	1	1	1	1	620
5	1	1	1	1	615
6	1	1	1	1	558
7	1	1	1	1	526
8	1	1	1	1	556
9	1	1	1	1	561
10	1	1	1	1	455
11	1	1	1	1	350
12	1	1	1	1	275
13	1	1	1	1	342
14	1	1	1	1	396
15	1	1	1	1	455
0	1	1	1	1	448
1	1	1	1	1	423
2	1	1	1	1	448
3	1	1	1	1	455
4	1	1	1	1	455
5	1	1	1	1	496
6	1	1	1	1	494
7	1	1	1	1	519
8	1	1	1	1	531
9	1	1	1	1	526
10	1	1	1	1	505
11	1	1	1	1	563
12	1	1	1	1	647
13	1	1	1	1	608
14	1	1	1	1	536
15	1	1	1	1	504
0	1	1	1	1	455
1	1	1	1	1	409
2	1	1	1	1	371
3	1	1	1	1	344
4	1	1	1	1	359
5	1	1	1	1	403
6	1	1	1	1	432
7	1	1	1	1	472
8	1	1	1	1	480
9	1	1	1	1	494
10	1	1	1	1	512
11	1	1	1	1	504
12	1	1	1	1	556
13	1	1	1	1	608
14	1	1	1	1	563
15	1	1	1	1	551
0	1	1	1	1	505
1	1	1	1	1	487
2	1	1	1	1	487
3	1	1	1	1	473
4	1	1	1	1	463
5	1	1	1	1	497
6	1	1	1	1	569
7	1	1	1	1	537
8	1	1	1	1	524
9	1	1	1	1	519
10	1	1	1	1	499
11	1	1	1	1	433
12	1	1	1	1	399
13	1	1	1	1	440
14	1	1	1	1	497
15	1	1	1	1	513
0	1	1	1	1	575
1	1	1	1	1	600
2	1	1	1	1	550
3	1	1	1	1	508
4	1	1	1	1	440
5	1	1	1	1	380
6	1	1	1	1	401
7	1	1	1	1	384
8	1	1	1	1	399
9	1	1	1	1	433
10	1	1	1	1	399
11	1	1	1	1	391
12	1	1	1	1	480
13	1	1	1	1	620
14	1	1	1	1	704
15	1	1	1	1	671
0	1	1	1	1	622
1	1	1	1	1	561
2	1	1	1	1	510
3	1	1	1	1	472
4	1	1	1	1	487
5	1	1	1	1	440
6	1	1	1	1	422
7	1	1	1	1	430
8	1	1	1	1	451
9	1	1	1	1	492
10	1	1	1	1	467
11	1	1	1	1	396
12	1	1	1	1	384
13	1	1	1	1	412
14	1	1	1	1	440
15	1	1	1	1	444
0	1	1	1	1	396
1	1	1	1	1	403
2	1	1	1	1	432
3	1	1	1	1	463
4	1	1	1	1	519
5	1	1	1	1	563
6	1	1	1	1	585
7	1	1	1	1	595
8	1	1	1	1	600
9	1	1	1	1	591
10	1	1	1	1	632
11	1	1	1	1	624
12	1	1	1	1	574
13	1	1	1	1	537
14	1	1	1	1	558
15	1	1	1	1	508
0	1	1	1	1	472
1	1	1	1	1	496
2	1	1	1	1	476
3	1	1	1	1	396
4	1	1	1	1	271
5	1	1	1	1	332
6	1	1	1	1	344
7	1	1	1	1	371
8	1	1	1	1	460
9	1	1	1	1	508
10	1	1	1	1	583
11	1	1	1	1	615
12	1	1	1	1	595
13	1	1	1	1	536
14	1	1	1	1	448
15	1	1	1	1	415
0	1	1	1	1	449
1	1	1	1	1	440
2	1	1	1	1	423
3	1	1	1	1	462
4	1	1	1	1	492
5	1	1	1	1	508
6	1	1	1	1	483
7	1	1	1	1	441
8	1	1	1	1	472
9	1	1	1	1	492
10	1	1	1	1	524
11	1	1	1	1	572
12	1	1	1	1	575
13	1	1	1	1	543
14	1	1	1	1	497
15	1	1	1	1	480
0	1	1	1	1	449
1	1	1	1	1	422
2	1	1	1	1	480
3	1	1	1	1	519
4	1	1	1	1	473
5	1	1	1	1	467
6	1	1	1	1	408
7	1	1	1	1	355
8	1	1	1	1	391
9	1	1	1	1	454
10	1	1	1	1	496
11	1	1	1	1	518
12	1	1	1	1	497
13	1	1	1	1	462
14	1	1	1	1	480
15	1	1	1	1	492
0	1	1	1	1	486
1	1	1	1	1	524
2	1	1	1	1	551
3	1	1	1	1	536
4	1	1	1	1	575
5	1	1	1	1	600
6	1	1	1	1	611
7	1	1	1	1	639
8	1	1	1	1	604
9	1	1	1	1	575
10	1	1	1	1	591
11	1	1	1	1	563
12	1	1	1	1	467
13	1	1	1	1	408
14	1	1	1	1	352
15	1	1	1	1	259
0	1	1	1	1	312
1	1	1	1	1	385
2	1	1	1	1	387
3	1	1	1	1	440
4	1	1	1	1	499
5	1	1	1	1	531
6	1	1	1	1	483
7	1	1	1	1	463
8	1	1	1	1	511
9	1	1	1	1	529
10	1	1	1	1	536
11	1	1	1	1	583
12	1	1	1	1	608
13	1	1	1	1	569
14	1	1	1	1	531
15	1	1	1	1	508
0	1	1	1	1	483
1	1	1	1	1	385
2	1	1	1	1	359
3	1	1	1	1	348
4	1	1	1	1	295
5	1	1	1	1	376
6	1	1	1	1	448
7	1	1	1	1	510
8	1	1	1	1	540
9	1	1	1	1	531
10	1	1	1	1	547
11	1	1	1	1	543
12	1	1	1	1	543
13	1	1	1	1	551
14	1	1	1	1	529
15	1	1	1	1	499
0	1	1	1	1	463
1	1	1	1	1	428
2	1	1	1	1	401
3	1	1	1	1	368
4	1	1	1	1	435
5	1	1	1	1	480
6	1	1	1	1	487
7	1	1	1	1	508
8	1	1	1	1	473
9	1	1	1	1	504
10	1	1	1	1	591
11	1	1	1	1	608
12	1	1	1	1	579
13	1	1	1	1	624
14	1	1	1	1	600
15	1	1	1	1	519
0	1	1	1	1	463
1	1	1	1	1	353
2	1	1	1	1	263
3	1	1	1	1	273
4	1	1	1	1	359
5	1	1	1	1	432
6	1	1	1	1	472
7	1	1	1	1	527
8	1	1	1	1	579
9	1	1	1	1	600
10	1	1	1	1	608
11	1	1	1	1	615
12	1	1	1	1	611
13	1	1	1	1	568
14	1	1	1	1	492
15	1	1	1	1	440
0	1	1	1	1	440
1	1	1	1	1	419
2	1	1	1	1	398
3	1	1	1	1	423
4	1	1	1	1	440
5	1	1	1	1	472
6	1	1	1	1	504
7	1	1	1	1	527
8	1	1	1	1	551
9	1	1	1	1	496
10	1	1	1	1	489
11	1	1	1	1	504
12	1	1	1	1	497
13	1	1	1	1	428
14	1	1	1	1	335
15	1	1	1	1	350
0	1	1	1	1	408
1	1	1	1	1	486
2	1	1	1	1	556
3	1	1	1	1	625
4	1	1	1	1	664
5	1	1	1	1	647
6	1	1	1	1	633
7	1	1	1	1	551
8	1	1	1	1	504
9	1	1	1	1	483
10	1	1	1	1	415
11	1	1	1	1	391
12	1	1	1	1	423
13	1	1	1	1	448
14	1	1	1	1	425
15	1	1	1	1	399
0	1	1	1	1	350
1	1	1	1	1	254
2	1	1	1	1	287
3	1	1	1	1	451
4	1	1	1	1	492
5	1	1	1	1	524
6	1	1	1	1	561
7	1	1	1	1	568
8	1	1	1	1	556
9	1	1	1	1	519
10	1	1	1	1	480
11	1	1	1	1	480
12	1	1	1	1	492
13	1	1	1	1	481
14	1	1	1	1	494
15	1	1	1	1	512
0	1	1	1	1	508
1	1	1	1	1	478
2	1	1	1	1	487
3	1	1	1	1	492
4	1	1	1	1	448
5	1	1	1	1	472
6	1	1	1	1	575
7	1	1	1	1	636
8	1	1	1	1	646
9	1	1	1	1	636
10	1	1	1	1	615
11	1	1	1	1	542
12	1	1	1	1	455
13	1	1	1	1	384
14	1	1	1	1	291
15	1	1	1	1	268
0	1	1	1	1	352
1	1	1	1	1	419
2	1	1	1	1	455
3	1	1	1	1	467
4	1	1	1	1	423
5	1	1	1	1	438
6	1	1	1	1	504
7	1	1	1	1	521
8	1	1	1	1	496
9	1	1	1	1	487
10	1	1	1	1	504
11	1	1	1	1	502
12	1	1	1	1	487
13	1	1	1	1	462
14	1	1	1	1	451
15	1	1	1	1	449
0	1	1	1	1	440
1	1	1	1	1	551
2	1	1	1	1	608
3	1	1	1	1	568
4	1	1	1	1	495
5	1	1	1	1	483
6	1	1	1	1	481
7	1	1	1	1	492
8	1	1	1	1	504
9	1	1	1	1	505
10	1	1	1	1	556
11	1	1	1	1	543
12	1	1	1	1	499
13	1	1	1	1	504
14	1	1	1	1	483
15	1	1	1	1	432
0	1	1	1	1	492
1	1	1	1	1	524
2	1	1	1	1	472
3	1	1	1	1	380
4	1	1	1	1	391
5	1	1	1	1	399
6	1	1	1	1	408
7	1	1	1	1	415
8	1	1	1	1	460
9	1	1	1	1	527
10	1	1	1	1	527
11	1	1	1	1	519
12	1	1	1	1	527
13	1	1	1	1	569
14	1	1	1	1	560
15	1	1	1	1	480
0	1	1	1	1	391
1	1	1	1	1	339
2	1	1	1	1	384
3	1	1	1	1	448
4	1	1	1	1	519
5	1	1	1	1	558
6	1	1	1	1	543
7	1	1	1	1	542
8	1	1	1	1	515
9	1	1	1	1	496
10	1	1	1	1	483
11	1	1	1	1	508
12	1	1	1	1	579
13	1	1	1	1	686
14	1	1	1	1	664
15	1	1	1	1	608
0	1	1	1	1	526
1	1	1	1	1	406
2	1	1	1	1	339
3	1	1	1	1	281
4	1	1	1	1	295
5	1	1	1	1	302
6	1	1	1	1	344
7	1	1	1	1	432
8	1	1	1	1	467
9	1	1	1	1	510
10	1	1	1	1	536
11	1	1	1	1	543
12	1	1	1	1	537
13	1	1	1	1	510
14	1	1	1	1	497
15	1	1	1	1	473
0	1	1	1	1	435
1	1	1	1	1	451
2	1	1	1	1	457
3	1	1	1	1	440
4	1	1	1	1	440
5	1	1	1	1	455
6	1	1	1	1	448
7	1	1	1	1	487
8	1	1	1	1	515
9	1	1	1	1	531
10	1	1	1	1	595
11	1	1	1	1	668
12	1	1	1	1	671
13	1	1	1	1	639
14	1	1	1	1	572
15	1	1	1	1	534
0	1	1	1	1	519
1	1	1	1	1	497
2	1	1	1	1	496
3	1	1	1	1	515
4	1	1	1	1	515
5	1	1	1	1	494
6	1	1	1	1	448
7	1	1	1	1	415
8	1	1	1	1	369
9	1	1	1	1	371
10	1	1	1	1	359
11	1	1	1	1	337
12	1	1	1	1	428
13	1	1	1	1	448
14	1	1	1	1	423
15	1	1	1	1	455
0	1	1	1	1	504
1	1	1	1	1	511
2	1	1	1	1	496
3	1	1	1	1	483
4	1	1	1	1	444
5	1	1	1	1	462
6	1	1	1	1	499
7	1	1	1	1	560
8	1	1	1	1	588
9	1	1	1	1	609
10	1	1	1	1	582
11	1	1	1	1	551
12	1	1	1	1	563
13	1	1	1	1	519
14	1	1	1	1	465
15	1	1	1	1	423
0	1	1	1	1	391
1	1	1	1	1	409
2	1	1	1	1	401
3	1	1	1	1	408
4	1	1	1	1	433
5	1	1	1	1	408
6	1	1	1	1	433
7	1	1	1	1	460
8	1	1	1	1	472
9	1	1	1	1	463
10	1	1	1	1	448
11	1	1	1	1	480
12	1	1	1	1	574
13	1	1	1	1	647
14	1	1	1	1	632
15	1	1	1	1	572
0	1	1	1	1	547
1	1	1	1	1	531
2	1	1	1	1	515
3	1	1	1	1	478
4	1	1	1	1	423
5	1	1	1	1	399
6	1	1	1	1	428
7	1	1	1	1	460
8	1	1	1	1	480
9	1	1	1	1	472
10	1	1	1	1	455
11	1	1	1	1	455
12	1	1	1	1	441
13	1	1	1	1	449
14	1	1	1	1	467
15	1	1	1	1	473
0	1	1	1	1	504
1	1	1	1	1	572
2	1	1	1	1	615
3	1	1	1	1	575
4	1	1	1	1	529
5	1	1	1	1	540
6	1	1	1	1	575
7	1	1	1	1	536
8	1	1	1	1	540
9	1	1	1	1	527
10	1	1	1	1	512
11	1	1	1	1	487
12	1	1	1	1	441
13	1	1	1	1	415
14	1	1	1	1	449
15	1	1	1	1	441
0	1	1	1	1	448
1	1	1	1	1	448
2	1	1	1	1	419
3	1	1	1	1	391
4	1	1	1	1	399
5	1	1	1	1	451
6	1	1	1	1	472
7	1	1	1	1	448
8	1	1	1	1	448
9	1	1	1	1	423
10	1	1	1	1	412
11	1	1	1	1	423
12	1	1	1	1	455
13	1	1	1	1	472
14	1	1	1	1	486
15	1	1	1	1	508
0	1	1	1	1	519
1	1	1	1	1	531
2	1	1	1	1	551
3	1	1	1	1	551
4	1	1	1	1	568
5	1	1	1	1	572
6	1	1	1	1	568
7	1	1	1	1	572
8	1	1	1	1	551
9	1	1	1	1	529
10	1	1	1	1	527
11	1	1	1	1	480
12	1	1	1	1	472
13	1	1	1	1	448
14	1	1	1	1	414
15	1	1	1	1	409
0	1	1	1	1	449
1	1	1	1	1	512
2	1	1	1	1	527
3	1	1	1	1	536
4	1	1	1	1	536
5	1	1	1	1	480
6	1	1	1	1	398
7	1	1	1	1	323
8	1	1	1	1	313
9	1	1	1	1	359
10	1	1	1	1	511
11	1	1	1	1	575
12	1	1	1	1	600
13	1	1	1	1	639
14	1	1	1	1	595
15	1	1	1	1	551
0	1	1	1	1	524
1	1	1	1	1	515
2	1	1	1	1	448
3	1	1	1	1	355
4	1	1	1	1	323
5	1	1	1	1	415
6	1	1	1	1	504
7	1	1	1	1	563
8	1	1	1	1	583
9	1	1	1	1	588
10	1	1	1	1	593
11	1	1	1	1	601
12	1	1	1	1	519
13	1	1	1	1	463
14	1	1	1	1	440
15	1	1	1	1	366
0	1	1	1	1	384
1	1	1	1	1	391
2	1	1	1	1	390
3	1	1	1	1	399
4	1	1	1	1	428
5	1	1	1	1	451
6	1	1	1	1	481
7	1	1	1	1	487
8	1	1	1	1	536
9	1	1	1	1	560
10	1	1	1	1	524
11	1	1	1	1	496
12	1	1	1	1	531
13	1	1	1	1	536
14	1	1	1	1	524
15	1	1	1	1	496
0	1	1	1	1	480
1	1	1	1	1	444
2	1	1	1	1	435
3	1	1	1	1	480
4	1	1	1	1	543
5	1	1	1	1	595
6	1	1	1	1	568
7	1	1	1	1	504
8	1	1	1	1	460
9	1	1	1	1	423
10	1	1	1	1	366
11	1	1	1	1	374
12	1	1	1	1	463
13	1	1	1	1	504
14	1	1	1	1	504
15	1	1	1	1	531
0	1	1	1	1	534
1	1	1	1	1	512
2	1	1	1	1	502
3	1	1	1	1	480
4	1	1	1	1	481
5	1	1	1	1	513
6	1	1	1	1	480
7	1	1	1	1	408
8	1	1	1	1	423
9	1	1	1	1	519
10	1	1	1	1	526
11	1	1	1	1	497
12	1	1	1	1	543
13	1	1	1	1	575
14	1	1	1	1	547
15	1	1	1	1	568
0	1	1	1	1	572
1	1	1	1	1	487
2	1	1	1	1	419
3	1	1	1	1	368
4	1	1	1	1	316
5	1	1	1	1	337
6	1	1	1	1	451
7	1	1	1	1	460
8	1	1	1	1	465
9	1	1	1	1	542
10	1	1	1	1	575
11	1	1	1	1	512
12	1	1	1	1	492
13	1	1	1	1	536
14	1	1	1	1	543
15	1	1	1	1	551
0	1	1	1	1	572
1	1	1	1	1	536
2	1	1	1	1	480
3	1	1	1	1	457
4	1	1	1	1	433
5	1	1	1	1	408
6	1	1	1	1	448
7	1	1	1	1	449
8	1	1	1	1	423
9	1	1	1	1	433
10	1	1	1	1	467
11	1	1	1	1	494
12	1	1	1	1	518
13	1	1	1	1	536
14	1	1	1	1	536
15	1	1	1	1	563
0	1	1	1	1	568
1	1	1	1	1	510
2	1	1	1	1	480
3	1	1	1	1	451
4	1	1	1	1	391
5	1	1	1	1	376
6	1	1	1	1	391
7	1	1	1	1	467
8	1	1	1	1	550
9	1	1	1	1	527
10	1	1	1	1	473
11	1	1	1	1	444
12	1	1	1	1	423
13	1	1	1	1	455
14	1	1	1	1	460
15	1	1	1	1	455
0	1	1	1	1	480
1	1	1	1	1	543
2	1	1	1	1	561
3	1	1	1	1	572
4	1	1	1	1	595
5	1	1	1	1	588
6	1	1	1	1	575
7	1	1	1	1	543
8	1	1	1	1	504
9	1	1	1	1	438
10	1	1	1	1	432
11	1	1	1	1	415
12	1	1	1	1	384
13	1	1	1	1	415
14	1	1	1	1	460
15	1	1	1	1	504
0	1	1	1	1	519
1	1	1	1	1	480
2	1	1	1	1	472
3	1	1	1	1	478
4	1	1	1	1	441
5	1	1	1	1	423
6	1	1	1	1	433
7	1	1	1	1	440
8	1	1	1	1	472
9	1	1	1	1	487
10	1	1	1	1	465
11	1	1	1	1	460
12	1	1	1	1	481
13	1	1	1	1	496
14	1	1	1	1	496
15	1	1	1	1	451
0	1	1	1	1	440
1	1	1	1	1	476
2	1	1	1	1	480
3	1	1	1	1	476
4	1	1	1	1	462
5	1	1	1	1	440
6	1	1	1	1	467
7	1	1	1	1	527
8	1	1	1	1	543
9	1	1	1	1	540
10	1	1	1	1	531
11	1	1	1	1	527
12	1	1	1	1	536
13	1	1	1	1	540
14	1	1	1	1	568
15	1	1	1	1	600
0	1	1	1	1	575
1	1	1	1	1	560
2	1	1	1	1	527
3	1	1	1	1	455
4	1	1	1	1	403
5	1	1	1	1	399
6	1	1	1	1	376
7	1	1	1	1	335
8	1	1	1	1	376
9	1	1	1	1	455
10	1	1	1	1	472
11	1	1	1	1	480
12	1	1	1	1	499
13	1	1	1	1	487
14	1	1	1	1	497
15	1	1	1	1	542
0	1	1	1	1	604
1	1	1	1	1	600
2	1	1	1	1	531
3	1	1	1	1	435
4	1	1	1	1	399
5	1	1	1	1	408
6	1	1	1	1	380
7	1	1	1	1	391
8	1	1	1	1	399
9	1	1	1	1	448
10	1	1	1	1	540
11	1	1	1	1	615
12	1	1	1	1	652
13	1	1	1	1	583
14	1	1	1	1	519
15	1	1	1	1	534
0	1	1	1	1	547
1	1	1	1	1	524
2	1	1	1	1	480
3	1	1	1	1	391
4	1	1	1	1	342
5	1	1	1	1	393
6	1	1	1	1	423
7	1	1	1	1	435
8	1	1	1	1	481
9	1	1	1	1	524
10	1	1	1	1	536
11	1	1	1	1	551
12	1	1	1	1	537
13	1	1	1	1	527
14	1	1	1	1	511
15	1	1	1	1	508
0	1	1	1	1	497
1	1	1	1	1	455
2	1	1	1	1	415
3	1	1	1	1	415
4	1	1	1	1	408
5	1	1	1	1	399
6	1	1	1	1	449
7	1	1	1	1	483
8	1	1	1	1	499
9	1	1	1	1	527
10	1	1	1	1	583
11	1	1	1	1	575
12	1	1	1	1	559
13	1	1	1	1	519
14	1	1	1	1	486
15	1	1	1	1	486
0	1	1	1	1	496
1	1	1	1	1	483
2	1	1	1	1	423
3	1	1	1	1	391
4	1	1	1	1	415
5	1	1	1	1	412
6	1	1	1	1	414
7	1	1	1	1	415
8	1	1	1	1	441
9	1	1	1	1	440
10	1	1	1	1	446
11	1	1	1	1	504
12	1	1	1	1	543
13	1	1	1	1	540
14	1	1	1	1	499
15	1	1	1	1	497
0	1	1	1	1	504
1	1	1	1	1	487
2	1	1	1	1	472
3	1	1	1	1	448
4	1	1	1	1	472
5	1	1	1	1	534
6	1	1	1	1	632
7	1	1	1	1	659
8	1	1	1	1	647
9	1	1	1	1	647
10	1	1	1	1	647
11	1	1	1	1	550
12	1	1	1	1	472
13	1	1	1	1	408
14	1	1	1	1	312
15	1	1	1	1	398
0	1	1	1	1	492
1	1	1	1	1	480
2	1	1	1	1	478
3	1	1	1	1	455
4	1	1	1	1	467
5	1	1	1	1	463
6	1	1	1	1	428
7	1	1	1	1	391
8	1	1	1	1	391
9	1	1	1	1	433
10	1	1	1	1	399
11	1	1	1	1	401
12	1	1	1	1	409
13	1	1	1	1	440
14	1	1	1	1	472
15	1	1	1	1	527
0	1	1	1	1	496
1	1	1	1	1	435
2	1	1	1	1	432
3	1	1	1	1	448
4	1	1	1	1	519
5	1	1	1	1	615
6	1	1	1	1	622
7	1	1	1	1	638
8	1	1	1	1	711
9	1	1	1	1	679
10	1	1	1	1	543
11	1	1	1	1	480
12	1	1	1	1	440
13	1	1	1	1	399
14	1	1	1	1	480
15	1	1	1	1	543
0	1	1	1	1	543
1	1	1	1	1	496
2	1	1	1	1	432
3	1	1	1	1	428
4	1	1	1	1	415
5	1	1	1	1	364
6	1	1	1	1	339
7	1	1	1	1	326
8	1	1	1	1	339
9	1	1	1	1	377
10	1	1	1	1	408
11	1	1	1	1	467
12	1	1	1	1	524
13	1	1	1	1	536
14	1	1	1	1	551
15	1	1	1	1	563
0	1	1	1	1	550
1	1	1	1	1	496
2	1	1	1	1	432
3	1	1	1	1	415
4	1	1	1	1	448
5	1	1	1	1	463
6	1	1	1	1	487
7	1	1	1	1	496
8	1	1	1	1	494
9	1	1	1	1	496
10	1	1	1	1	495
11	1	1	1	1	512
12	1	1	1	1	523
13	1	1	1	1	519
14	1	1	1	1	512
15	1	1	1	1	536
0	1	1	1	1	540
1	1	1	1	1	536
2	1	1	1	1	480
3	1	1	1	1	463
4	1	1	1	1	497
5	1	1	1	1	513
6	1	1	1	1	513
7	1	1	1	1	515
8	1	1	1	1	496
9	1	1	1	1	527
10	1	1	1	1	583
11	1	1	1	1	551
12	1	1	1	1	519
13	1	1	1	1	476
14	1	1	1	1	432
15	1	1	1	1	428
0	1	1	1	1	496
1	1	1	1	1	451
2	1	1	1	1	415
3	1	1	1	1	511
4	1	1	1	1	542
5	1	1	1	1	483
6	1	1	1	1	376
7	1	1	1	1	352
8	1	1	1	1	408
9	1	1	1	1	440
10	1	1	1	1	455
11	1	1	1	1	451
12	1	1	1	1	496
13	1	1	1	1	519
14	1	1	1	1	505
15	1	1	1	1	524
0	1	1	1	1	560
1	1	1	1	1	527
2	1	1	1	1	492
3	1	1	1	1	472
4	1	1	1	1	492
5	1	1	1	1	478
6	1	1	1	1	444
7	1	1	1	1	448
8	1	1	1	1	408
9	1	1	1	1	401
10	1	1	1	1	415
11	1	1	1	1	412
12	1	1	1	1	432
13	1	1	1	1	481
14	1	1	1	1	519
15	1	1	1	1	531
0	1	1	1	1	515
1	1	1	1	1	513
2	1	1	1	1	519
3	1	1	1	1	496
4	1	1	1	1	465
5	1	1	1	1	422
6	1	1	1	1	408
7	1	1	1	1	448
8	1	1	1	1	455
9	1	1	1	1	496
10	1	1	1	1	512
11	1	1	1	1	526
12	1	1	1	1	601
13	1	1	1	1	615
14	1	1	1	1	569
15	1	1	1	1	550
0	1	1	1	1	519
1	1	1	1	1	505
2	1	1	1	1	512
3	1	1	1	1	519
4	1	1	1	1	527
5	1	1	1	1	508
6	1	1	1	1	476
7	1	1	1	1	448
8	1	1	1	1	414
9	1	1	1	1	414
10	1	1	1	1	412
11	1	1	1	1	391
12	1	1	1	1	419
13	1	1	1	1	465
14	1	1	1	1	480
15	1	1	1	1	515
0	1	1	1	1	527
1	1	1	1	1	529
2	1	1	1	1	556
3	1	1	1	1	547
4	1	1	1	1	524
5	1	1	1	1	465
6	1	1	1	1	428
7	1	1	1	1	399
8	1	1	1	1	430
9	1	1	1	1	463
10	1	1	1	1	463
11	1	1	1	1	455
12	1	1	1	1	448
13	1	1	1	1	455
14	1	1	1	1	496
15	1	1	1	1	527
0	1	1	1	1	511
1	1	1	1	1	543
2	1	1	1	1	575
3	1	1	1	1	560
4	1	1	1	1	531
5	1	1	1	1	519
6	1	1	1	1	465
7	1	1	1	1	444
8	1	1	1	1	478
9	1	1	1	1	432
10	1	1	1	1	391
11	1	1	1	1	391
12	1	1	1	1	412
13	1	1	1	1	423
14	1	1	1	1	423
15	1	1	1	1	472
0	1	1	1	1	480
1	1	1	1	1	502
2	1	1	1	1	547
3	1	1	1	1	545
4	1	1	1	1	487
5	1	1	1	1	451
6	1	1	1	1	423
7	1	1	1	1	460
8	1	1	1	1	519
9	1	1	1	1	524
10	1	1	1	1	513
11	1	1	1	1	487
12	1	1	1	1	497
13	1	1	1	1	504
14	1	1	1	1	505
15	1	1	1	1	512
0	1	1	1	1	511
1	1	1	1	1	551
2	1	1	1	1	575
3	1	1	1	1	575
4	1	1	1	1	536
5	1	1	1	1	497
6	1	1	1	1	519
7	1	1	1	1	551
8	1	1	1	1	519
9	1	1	1	1	481
10	1	1	1	1	451
11	1	1	1	1	423
12	1	1	1	1	391
13	1	1	1	1	399
14	1	1	1	1	391
15	1	1	1	1	393
0	1	1	1	1	448
1	1	1	1	1	486
2	1	1	1	1	494
3	1	1	1	1	455
4	1	1	1	1	403
5	1	1	1	1	380
6	1	1	1	1	412
7	1	1	1	1	448
8	1	1	1	1	455
9	1	1	1	1	497
10	1	1	1	1	494
11	1	1	1	1	480
12	1	1	1	1	483
13	1	1	1	1	496
14	1	1	1	1	504
15	1	1	1	1	499
0	1	1	1	1	502
1	1	1	1	1	515
2	1	1	1	1	531
3	1	1	1	1	511
4	1	1	1	1	536
5	1	1	1	1	575
6	1	1	1	1	574
7	1	1	1	1	563
8	1	1	1	1	543
9	1	1	1	1	531
10	1	1	1	1	527
11	1	1	1	1	513
12	1	1	1	1	438
13	1	1	1	1	428
14	1	1	1	1	448
15	1	1	1	1	440
0	1	1	1	1	472
1	1	1	1	1	499
2	1	1	1	1	476
3	1	1	1	1	440
4	1	1	1	1	422
5	1	1	1	1	440
6	1	1	1	1	504
7	1	1	1	1	527
8	1	1	1	1	473
9	1	1	1	1	423
10	1	1	1	1	433
11	1	1	1	1	440
12	1	1	1	1	423
13	1	1	1	1	408
14	1	1	1	1	448
15	1	1	1	1	481
0	1	1	1	1	536
1	1	1	1	1	568
2	1	1	1	1	543
3	1	1	1	1	536
4	1	1	1	1	527
5	1	1	1	1	496
6	1	1	1	1	432
7	1	1	1	1	359
8	1	1	1	1	364
9	1	1	1	1	371
10	1	1	1	1	412
11	1	1	1	1	423
12	1	1	1	1	444
13	1	1	1	1	478
14	1	1	1	1	486
15	1	1	1	1	508
0	1	1	1	1	588
1	1	1	1	1	654
2	1	1	1	1	647
3	1	1	1	1	639
4	1	1	1	1	624
5	1	1	1	1	590
6	1	1	1	1	527
7	1	1	1	1	460
8	1	1	1	1	384
9	1	1	1	1	335
10	1	1	1	1	302
11	1	1	1	1	334
12	1	1	1	1	391
13	1	1	1	1	391
14	1	1	1	1	415
15	1	1	1	1	423
0	1	1	1	1	448
1	1	1	1	1	463
2	1	1	1	1	512
3	1	1	1	1	569
4	1	1	1	1	615
5	1	1	1	1	604
6	1	1	1	1	563
7	1	1	1	1	561
8	1	1	1	1	579
9	1	1	1	1	632
10	1	1	1	1	590
11	1	1	1	1	446
12	1	1	1	1	422
13	1	1	1	1	481
14	1	1	1	1	508
15	1	1	1	1	492
0	1	1	1	1	455
1	1	1	1	1	387
2	1	1	1	1	355
3	1	1	1	1	359
4	1	1	1	1	384
5	1	1	1	1	412
6	1	1	1	1	473
7	1	1	1	1	575
8	1	1	1	1	583
9	1	1	1	1	591
10	1	1	1	1	591
11	1	1	1	1	547
12	1	1	1	1	513
13	1	1	1	1	476
14	1	1	1	1	401
15	1	1	1	1	355
0	1	1	1	1	352
1	1	1	1	1	359
2	1	1	1	1	364
3	1	1	1	1	415
4	1	1	1	1	463
5	1	1	1	1	480
6	1	1	1	1	487
7	1	1	1	1	519
8	1	1	1	1	556
9	1	1	1	1	542
10	1	1	1	1	540
11	1	1	1	1	536
12	1	1	1	1	489
13	1	1	1	1	467
14	1	1	1	1	463
15	1	1	1	1	463
0	1	1	1	1	448
1	1	1	1	1	463
2	1	1	1	1	462
3	1	1	1	1	448
4	1	1	1	1	451
5	1	1	1	1	476
6	1	1	1	1	480
7	1	1	1	1	460
8	1	1	1	1	455
9	1	1	1	1	483
10	1	1	1	1	499
11	1	1	1	1	543
12	1	1	1	1	588
13	1	1	1	1	601
14	1	1	1	1	615
15	1	1	1	1	572
0	1	1	1	1	497
1	1	1	1	1	448
2	1	1	1	1	380
3	1	1	1	1	376
4	1	1	1	1	440
5	1	1	1	1	472
6	1	1	1	1	455
7	1	1	1	1	448
8	1	1	1	1	440
9	1	1	1	1	455
10	1	1	1	1	454
11	1	1	1	1	432
12	1	1	1	1	435
13	1	1	1	1	473
14	1	1	1	1	512
15	1	1	1	1	519
0	1	1	1	1	492
1	1	1	1	1	460
2	1	1	1	1	496
3	1	1	1	1	527
4	1	1	1	1	543
5	1	1	1	1	529
6	1	1	1	1	508
7	1	1	1	1	527
8	1	1	1	1	540
9	1	1	1	1	508
10	1	1	1	1	487
11	1	1	1	1	543
12	1	1	1	1	563
13	1	1	1	1	547
14	1	1	1	1	529
15	1	1	1	1	542
0	1	1	1	1	496
1	1	1	1	1	448
2	1	1	1	1	412
3	1	1	1	1	396
4	1	1	1	1	387
5	1	1	1	1	423
6	1	1	1	1	448
7	1	1	1	1	430
8	1	1	1	1	448
9	1	1	1	1	476
10	1	1	1	1	480
11	1	1	1	1	494
12	1	1	1	1	504
13	1	1	1	1	486
14	1	1	1	1	467
15	1	1	1	1	478
0	1	1	1	1	487
1	1	1	1	1	527
2	1	1	1	1	543
3	1	1	1	1	529
4	1	1	1	1	496
5	1	1	1	1	465
6	1	1	1	1	423
7	1	1	1	1	419
8	1	1	1	1	462
9	1	1	1	1	496
10	1	1	1	1	481
11	1	1	1	1	435
12	1	1	1	1	423
13	1	1	1	1	472
14	1	1	1	1	560
15	1	1	1	1	568
0	1	1	1	1	551
1	1	1	1	1	540
2	1	1	1	1	543
3	1	1	1	1	568
4	1	1	1	1	536
5	1	1	1	1	494
6	1	1	1	1	481
7	1	1	1	1	472
8	1	1	1	1	446
9	1	1	1	1	451
10	1	1	1	1	423
11	1	1	1	1	419
12	1	1	1	1	428
13	1	1	1	1	432
14	1	1	1	1	448
15	1	1	1	1	435
0	1	1	1	1	444
1	1	1	1	1	467
2	1	1	1	1	467
3	1	1	1	1	470
4	1	1	1	1	495
5	1	1	1	1	543
6	1	1	1	1	543
7	1	1	1	1	543
8	1	1	1	1	568
9	1	1	1	1	519
10	1	1	1	1	483
11	1	1	1	1	499
12	1	1	1	1	476
13	1	1	1	1	455
14	1	1	1	1	462
15	1	1	1	1	448
0	1	1	1	1	455
1	1	1	1	1	494
2	1	1	1	1	496
3	1	1	1	1	465
4	1	1	1	1	467
5	1	1	1	1	467
6	1	1	1	1	473
7	1	1	1	1	487
8	1	1	1	1	473
9	1	1	1	1	478
10	1	1	1	1	499
11	1	1	1	1	527
12	1	1	1	1	543
13	1	1	1	1	543
14	1	1	1	1	547
15	1	1	1	1	558
0	1	1	1	1	560
1	1	1	1	1	556
2	1	1	1	1	547
3	1	1	1	1	547
4	1	1	1	1	494
5	1	1	1	1	415
6	1	1	1	1	399
7	1	1	1	1	409
8	1	1	1	1	414
9	1	1	1	1	423
10	1	1	1	1	455
11	1	1	1	1	480
12	1	1	1	1	497
13	1	1	1	1	512
14	1	1	1	1	499
15	1	1	1	1	483
0	1	1	1	1	444
1	1	1	1	1	428
2	1	1	1	1	451
3	1	1	1	1	478
4	1	1	1	1	492
5	1	1	1	1	510
6	1	1	1	1	519
7	1	1	1	1	504
8	1	1	1	1	505
9	1	1	1	1	515
10	1	1	1	1	505
11	1	1	1	1	504
12	1	1	1	1	473
13	1	1	1	1	451
14	1	1	1	1	435
15	1	1	1	1	444
0	1	1	1	1	460
1	1	1	1	1	527
2	1	1	1	1	575
3	1	1	1	1	560
4	1	1	1	1	561
5	1	1	1	1	568
6	1	1	1	1	543
7	1	1	1	1	527
8	1	1	1	1	504
9	1	1	1	1	449
10	1	1	1	1	376
11	1	1	1	1	368
12	1	1	1	1	391
13	1	1	1	1	391
14	1	1	1	1	380
15	1	1	1	1	406
0	1	1	1	1	440
1	1	1	1	1	423
2	1	1	1	1	451
3	1	1	1	1	515
4	1	1	1	1	526
5	1	1	1	1	510
6	1	1	1	1	494
7	1	1	1	1	492
8	1	1	1	1	510
9	1	1	1	1	510
10	1	1	1	1	497
11	1	1	1	1	499
12	1	1	1	1	462
13	1	1	1	1	448
14	1	1	1	1	508
15	1	1	1	1	515
0	1	1	1	1	492
1	1	1	1	1	480
2	1	1	1	1	483
3	1	1	1	1	489
4	1	1	1	1	492
5	1	1	1	1	496
6	1	1	1	1	510
7	1	1	1	1	504
8	1	1	1	1	499
9	1	1	1	1	499
10	1	1	1	1	504
11	1	1	1	1	497
12	1	1	1	1	510
13	1	1	1	1	473
14	1	1	1	1	457
15	1	1	1	1	463
0	1	1	1	1	463
1	1	1	1	1	489
2	1	1	1	1	526
3	1	1	1	1	543
4	1	1	1	1	527
5	1	1	1	1	487
6	1	1	1	1	472
7	1	1	1	1	428
8	1	1	1	1	403
9	1	1	1	1	435
10	1	1	1	1	508
11	1	1	1	1	527
12	1	1	1	1	531
13	1	1	1	1	527
14	1	1	1	1	519
15	1	1	1	1	499
0	1	1	1	1	467
1	1	1	1	1	428
2	1	1	1	1	384
3	1	1	1	1	401
4	1	1	1	1	472
5	1	1	1	1	504
6	1	1	1	1	494
7	1	1	1	1	496
8	1	1	1	1	487
9	1	1	1	1	472
10	1	1	1	1	463
11	1	1	1	1	440
12	1	1	1	1	440
13	1	1	1	1	454
14	1	1	1	1	483
15	1	1	1	1	492
0	1	1	1	1	496
1	1	1	1	1	494
2	1	1	1	1	483
3	1	1	1	1	496
4	1	1	1	1	504
5	1	1	1	1	480
6	1	1	1	1	462
7	1	1	1	1	463
8	1	1	1	1	478
9	1	1	1	1	487
10	1	1	1	1	504
11	1	1	1	1	547
12	1	1	1	1	547
13	1	1	1	1	524
14	1	1	1	1	504
15	1	1	1	1	508
0	1	1	1	1	512
1	1	1	1	1	496
2	1	1	1	1	449
3	1	1	1	1	448
4	1	1	1	1	472
5	1	1	1	1	480
6	1	1	1	1	496
7	1	1	1	1	486
8	1	1	1	1	480
9	1	1	1	1	487
10	1	1	1	1	483
11	1	1	1	1	480
12	1	1	1	1	465
13	1	1	1	1	457
14	1	1	1	1	487
15	1	1	1	1	492
0	1	1	1	1	487
1	1	1	1	1	487
2	1	1	1	1	524
3	1	1	1	1	531
4	1	1	1	1	515
5	1	1	1	1	512
6	1	1	1	1	515
7	1	1	1	1	499
8	1	1	1	1	496
9	1	1	1	1	480
10	1	1	1	1	462
11	1	1	1	1	448
12	1	1	1	1	440
13	1	1	1	1	440
14	1	1	1	1	444
15	1	1	1	1	478
0	1	1	1	1	504
1	1	1	1	1	496
2	1	1	1	1	472
3	1	1	1	1	455
4	1	1	1	1	454
5	1	1	1	1	435
6	1	1	1	1	455
7	1	1	1	1	463
8	1	1	1	1	467
9	1	1	1	1	476
10	1	1	1	1	494
11	1	1	1	1	505
12	1	1	1	1	486
13	1	1	1	1	478
14	1	1	1	1	472
15	1	1	1	1	480
0	1	1	1	1	483
1	1	1	1	1	487
2	1	1	1	1	504
3	1	1	1	1	497
4	1	1	1	1	487
5	1	1	1	1	486
6	1	1	1	1	496
7	1	1	1	1	496
8	1	1	1	1	496
9	1	1	1	1	487
10	1	1	1	1	480
11	1	1	1	1	465
12	1	1	1	1	455
13	1	1	1	1	460
14	1	1	1	1	462
15	1	1	1	1	472
0	1	1	1	1	511
1	1	1	1	1	527
2	1	1	1	1	519
3	1	1	1	1	526
4	1	1	1	1	521
5	1	1	1	1	497
6	1	1	1	1	480
7	1	1	1	1	465
8	1	1	1	1	465
9	1	1	1	1	467
10	1	1	1	1	467
11	1	1	1	1	463
12	1	1	1	1	465
13	1	1	1	1	467
14	1	1	1	1	460
15	1	1	1	1	463
0	1	1	1	1	481
1	1	1	1	1	504
2	1	1	1	1	518
3	1	1	1	1	515
4	1	1	1	1	508
5	1	1	1	1	487
6	1	1	1	1	472
7	1	1	1	1	483
8	1	1	1	1	492
9	1	1	1	1	504
10	1	1	1	1	504
11	1	1	1	1	496
12	1	1	1	1	496
13	1	1	1	1	487
14	1	1	1	1	483
15	1	1	1	1	492
0	1	1	1	1	476
1	1	1	1	1	463
2	1	1	1	1	460
3	1	1	1	1	463
4	1	1	1	1	486
5	1	1	1	1	487
6	1	1	1	1	483
7	1	1	1	1	472
8	1	1	1	1	472
9	1	1	1	1	480
10	1	1	1	1	486
11	1	1	1	1	492
12	1	1	1	1	497
13	1	1	1	1	504
14	1	1	1	1	494
15	1	1	1	1	480
0	1	1	1	1	455
1	1	1	1	1	455
2	1	1	1	1	472
3	1	1	1	1	480
4	1	1	1	1	476
5	1	1	1	1	472
6	1	1	1	1	476
7	1	1	1	1	483
8	1	1	1	1	499
9	1	1	1	1	504
10	1	1	1	1	499
11	1	1	1	1	492
12	1	1	1	1	481
13	1	1	1	1	480
14	1	1	1	1	480
15	1	1	1	1	487
0	1	1	1	1	499
1	1	1	1	1	508
2	1	1	1	1	496
3	1	1	1	1	489
4	1	1	1	1	489
5	1	1	1	1	492
6	1	1	1	1	496
7	1	1	1	1	496
8	1	1	1	1	487
9	1	1	1	1	473
10	1	1	1	1	473
11	1	1	1	1	487
12	1	1	1	1	513
13	1	1	1	1	521
14	1	1	1	1	511
15	1	1	1	1	504
0	1	1	1	1	499
1	1	1	1	1	483
2	1	1	1	1	463
3	1	1	1	1	455
4	1	1	1	1	451
5	1	1	1	1	454
6	1	1	1	1	455
7	1	1	1	1	454
8	1	1	1	1	455
9	1	1	1	1	480
10	1	1	1	1	505
11	1	1	1	1	512
12	1	1	1	1	504
13	1	1	1	1	496
14	1	1	1	1	494
15	1	1	1	1	487
0	1	1	1	1	478
1	1	1	1	1	487
2	1	1	1	1	496
3	1	1	1	1	489
4	1	1	1	1	494
5	1	1	1	1	496
6	1	1	1	1	494
7	1	1	1	1	487
8	1	1	1	1	486
9	1	1	1	1	492
10	1	1	1	1	496
11	1	1	1	1	483
12	1	1	1	1	480
13	1	1	1	1	487
14	1	1	1	1	480
15	1	1	1	1	467
0	1	1	1	1	476
1	1	1	1	1	483
2	1	1	1	1	487
3	1	1	1	1	487
4	1	1	1	1	492
5	1	1	1	1	487
6	1	1	1	1	487
7	1	1	1	1	489
8	1	1	1	1	492
9	1	1	1	1	487
10	1	1	1	1	483
11	1	1	1	1	481
12	1	1	1	1	483
13	1	1	1	1	483
14	1	1	1	1	483
15	1	1	1	1	483
0	1	1	1	1	487
1	1	1	1	1	487
2	1	1	1	1	487
3	1	1	1	1	492
4	1	1	1	1	492
5	1	1	1	1	487
6	1	1	1	1	483
7	1	1	1	1	480
8	1	1	1	1	494
9	1	1	1	1	494
10	1	1	1	1	489
11	1	1	1	1	492
12	1	1	1	1	487
13	1	1	1	1	480
14	1	1	1	1	480
15	1	1	1	1	476
0	1	1	1	1	473
1	1	1	1	1	480
2	1	1	1	1	483
3	1	1	1	1	483
4	1	1	1	1	487
5	1	1	1	1	494
6	1	1	1	1	494
7	1	1	1	1	481
8	1	1	1	1	480
9	1	1	1	1	480
10	1	1	1	1	480
11	1	1	1	1	473
12	1	1	1	1	473
13	1	1	1	1	487
14	1	1	1	1	487
15	1	1	1	1	486
0	1	1	1	1	487
1	1	1	1	1	487
2	1	1	1	1	489
3	1	1	1	1	480
4	1	1	1	1	476
5	1	1	1	1	499
6	1	1	1	1	513
7	1	1	1	1	510
8	1	1	1	1	499
9	1	1	1	1	483
10	1	1	1	1	487
11	1	1	1	1	487
12	1	1	1	1	492
13	1	1	1	1	499
14	1	1	1	1	496
15	1	1	1	1	483
0	1	1	1	1	480
1	1	1	1	1	487
2	1	1	1	1	489
3	1	1	1	1	486
4	1	1	1	1	483
5	1	1	1	1	487
6	1	1	1	1	492
7	1	1	1	1	492
8	1	1	1	1	496
9	1	1	1	1	495
10	1	1	1	1	487
11	1	1	1	1	487
12	1	1	1	1	483
13	1	1	1	1	481
14	1	1	1	1	481
15	1	1	1	1	483
0	1	1	1	1	487
1	1	1	1	1	487
2	1	1	1	1	489
3	1	1	1	1	494
4	1	1	1	1	496
5	1	1	1	1	495
6	1	1	1	1	487
7	1	1	1	1	487
8	1	1	1	1	492
9	1	1	1	1	495
10	1	1	1	1	494
11	1	1	1	1	487
12	1	1	1	1	487
13	1	1	1	1	487
14	1	1	1	1	487
15	1	1	1	1	489
0	1	1	1	1	487
1	1	1	1	1	487
2	1	1	1	1	487
3	1	1	1	1	487
4	1	1	1	1	486
5	1	1	1	1	487
6	1	1	1	1	487
7	1	1	1	1	492
8	1	1	1	1	492
9	1	1	1	1	492
10	1	1	1	1	483
11	1	1	1	1	480
12	1	1	1	1	480
13	1	1	1	1	472
14	1	1	1	1	472
15	1	1	1	1	487
0	1	1	1	1	494
1	1	1	1	1	496
2	1	1	1	1	497
3	1	1	1	1	496
4	1	1	1	1	499
5	1	1	1	1	504
6	1	1	1	1	499
7	1	1	1	1	487
8	1	1	1	1	480
9	1	1	1	1	489
10	1	1	1	1	492
11	1	1	1	1	487
12	1	1	1	1	487
13	1	1	1	1	497
14	1	1	1	1	496
15	1	1	1	1	487
0	1	1	1	1	480
1	1	1	1	1	487
2	1	1	1	1	499
3	1	1	1	1	504
4	1	1	1	1	499
5	1	1	1	1	496
6	1	1	1	1	487
7	1	1	1	1	478
8	1	1	1	1	481
9	1	1	1	1	492
10	1	1	1	1	492
11	1	1	1	1	492
12	1	1	1	1	496
13	1	1	1	1	494
14	1	1	1	1	492
15	1	1	1	1	476
0	1	1	1	1	472
1	1	1	1	1	480
2	1	1	1	1	480
3	1	1	1	1	487
4	1	1	1	1	492
5	1	1	1	1	487
6	1	1	1	1	481
7	1	1	1	1	481
8	1	1	1	1	487
9	1	1	1	1	492
10	1	1	1	1	487
11	1	1	1	1	487
12	1	1	1	1	489
13	1	1	1	1	487
14	1	1	1	1	487
15	1	1	1	1	487
0	1	1	1	1	487
1	1	1	1	1	481
2	1	1	1	1	480
3	1	1	1	1	476
4	1	1	1	1	480
5	1	1	1	1	487
6	1	1	1	1	486
7	1	1	1	1	487
8	1	1	1	1	489
9	1	1	1	1	487
10	1	1	1	1	487
11	1	1	1	1	487
12	1	1	1	1	487
13	1	1	1	1	487
14	1	1	1	1	487
15	1	1	1	1	487
0	1	1	1	1	487
1	1	1	1	1	487
2	1	1	1	1	487
3	1	1	1	1	486
4	1	1	1	1	483
5	1	1	1	1	487
6	1	1	1	1	486
7	1	1	1	1	481
8	1	1	1	1	481
9	1	1	1	1	487
10	1	1	1	1	487
11	1	1	1	1	481
12	1	1	1	1	483
13	1	1	1	1	483
14	1	1	1	1	481
15	1	1	1	1	483
0	1	1	1	1	486
1	1	1	1	1	487
2	1	1	1	1	492
3	1	1	1	1	487
4	1	1	1	1	492
5	1	1	1	1	492
6	1	1	1	1	487
7	1	1	1	1	494
8	1	1	1	1	487
9	1	1	1	1	472
10	1	1	1	1	480
11	1	1	1	1	483
12	1	1	1	1	483
13	1	1	1	1	481
14	1	1	1	1	476
15	1	1	1	1	480
0	1	1	1	1	480
1	1	1	1	1	483
2	1	1	1	1	492
3	1	1	1	1	483
4	1	1	1	1	480
5	1	1	1	1	480
6	1	1	1	1	480
7	1	1	1	1	486
8	1	1	1	1	487
9	1	1	1	1	487
10	1	1	1	1	486
11	1	1	1	1	487
12	1	1	1	1	496
13	1	1	1	1	494
14	1	1	1	1	504
15	1	1	1	1	504
0	1	1	1	1	487
1	1	1	1	1	489
2	1	1	1	1	496
3	1	1	1	1	492
4	1	1	1	1	492
5	1	1	1	1	504
6	1	1	1	1	504
7	1	1	1	1	496
8	1	1	1	1	492
9	1	1	1	1	487
10	1	1	1	1	487
11	1	1	1	1	483
12	1	1	1	1	480
13	1	1	1	1	480
14	1	1	1	1	492
15	1	1	1	1	496
0	1	1	1	1	492
1	1	1	1	1	487
2	1	1	1	1	487
3	1	1	1	1	487
4	1	1	1	1	492
5	1	1	1	1	492
6	1	1	1	1	487
7	1	1	1	1	483
8	1	1	1	1	487
9	1	1	1	1	487
10	1	1	1	1	486
11	1	1	1	1	486
12	1	1	1	1	496
13	1	1	1	1	499
14	1	1	1	1	496
15	1	1	1	1	494
0	1	1	1	1	496
1	1	1	1	1	496
2	1	1	1	1	489
3	1	1	1	1	483
4	1	1	1	1	483
5	1	1	1	1	487
6	1	1	1	1	492
7	1	1	1	1	492
8	1	1	1	1	487
9	1	1	1	1	492
10	1	1	1	1	492
11	1	1	1	1	492
12	1	1	1	1	494
13	1	1	1	1	494
14	1	1	1	1	492
15	1	1	1	1	494
0	1	1	1	1	494
1	1	1	1	1	496
2	1	1	1	1	494
3	1	1	1	1	494
4	1	1	1	1	492
5	1	1	1	1	481
6	1	1	1	1	486
7	1	1	1	1	483
8	1	1	1	1	481
9	1	1	1	1	487
10	1	1	1	1	486
11	1	1	1	1	487
12	1	1	1	1	492
13	1	1	1	1	494
14	1	1	1	1	496
15	1	1	1	1	499
0	1	1	1	1	496
1	1	1	1	1	487
2	1	1	1	1	480
3	1	1	1	1	476
4	1	1	1	1	480
5	1	1	1	1	472
6	1	1	1	1	472
7	1	1	1	1	483
8	1	1	1	1	487
9	1	1	1	1	487
10	1	1	1	1	487
11	1	1	1	1	487
12	1	1	1	1	497
13	1	1	1	1	504
14	1	1	1	1	504
15	1	1	1	1	496
0	1	1	1	1	496
1	1	1	1	1	496
2	1	1	1	1	487
3	1	1	1	1	487
4	1	1	1	1	487
5	1	1	1	1	487
6	1	1	1	1	486
7	1	1	1	1	486
8	1	1	1	1	487
9	1	1	1	1	486
10	1	1	1	1	486
11	1	1	1	1	486
12	1	1	1	1	486
13	1	1	1	1	487
14	1	1	1	1	487
15	1	1	1	1	487
0	1	1	1	1	483
1	1	1	1	1	483
2	1	1	1	1	487
3	1	1	1	1	487
4	1	1	1	1	492
5	1	1	1	1	492
6	1	1	1	1	492
7	1	1	1	1	492
8	1	1	1	1	487
9	1	1	1	1	487
10	1	1	1	1	487
11	1	1	1	1	483
12	1	1	1	1	487
13	1	1	1	1	487
14	1	1	1	1	487
15	1	1	1	1	487
0	1	1	1	1	486
1	1	1	1	1	486
2	1	1	1	1	487
3	1	1	1	1	489
4	1	1	1	1	487
5	1	1	1	1	487
6	1	1	1	1	487
7	1	1	1	1	487
8	1	1	1	1	487
9	1	1	1	1	492
10	1	1	1	1	492
11	1	1	1	1	492
12	1	1	1	1	492
13	1	1	1	1	492
14	1	1	1	1	492
15	1	1	1	1	489
0	1	1	1	1	492
1	1	1	1	1	487
2	1	1	1	1	487
3	1	1	1	1	487
4	1	1	1	1	487
5	1	1	1	1	492
6	1	1	1	1	496
7	1	1	1	1	499
8	1	1	1	1	504
9	1	1	1	1	499
10	1	1	1	1	496
11	1	1	1	1	487
12	1	1	1	1	480
13	1	1	1	1	472
14	1	1	1	1	481
15	1	1	1	1	487
0	1	1	1	1	487
1	1	1	1	1	496
2	1	1	1	1	499
3	1	1	1	1	499
4	1	1	1	1	492
5	1	1	1	1	487
6	1	1	1	1	487
7	1	1	1	1	478
8	1	1	1	1	472
9	1	1	1	1	480
10	1	1	1	1	487
11	1	1	1	1	502
12	1	1	1	1	508
13	1	1	1	1	497
14	1	1	1	1	487
15	1	1	1	1	492
0	1	1	1	1	497
1	1	1	1	1	496
2	1	1	1	1	492
3	1	1	1	1	487
4	1	1	1	1	492
5	1	1	1	1	494
6	1	1	1	1	496
7	1	1	1	1	499
8	1	1	1	1	496
9	1	1	1	1	492
10	1	1	1	1	487
11	1	1	1	1	487
12	1	1	1	1	483
13	1	1	1	1	480
14	1	1	1	1	480
15	1	1	1	1	483
0	1	1	1	1	492
1	1	1	1	1	494
2	1	1	1	1	496
3	1	1	1	1	499
4	1	1	1	1	499
5	1	1	1	1	487
6	1	1	1	1	487
7	1	1	1	1	489
8	1	1	1	1	487
9	1	1	1	1	492
10	1	1	1	1	496
11	1	1	1	1	494
12	1	1	1	1	492
13	1	1	1	1	489
14	1	1	1	1	487
15	1	1	1	1	492
0	1	1	1	1	494
1	1	1	1	1	495
2	1	1	1	1	496
3	1	1	1	1	496
4	1	1	1	1	496
5	1	1	1	1	494
6	1	1	1	1	494
7	1	1	1	1	494
8	1	1	1	1	496
9	1	1	1	1	496
10	1	1	1	1	496
11	1	1	1	1	497
12	1	1	1	1	496
13	1	1	1	1	496
14	1	1	1	1	496
15	1	1	1	1	494
0	1	1	1	1	496
1	1	1	1	1	494
2	1	1	1	1	492
3	1	1	1	1	492
4	1	1	1	1	494
5	1	1	1	1	492
6	1	1	1	1	492
7	1	1	1	1	492
8	1	1	1	1	492
9	1	1	1	1	494
10	1	1	1	1	496
11	1	1	1	1	496
12	1	1	1	1	496
13	1	1	1	1	496
14	1	1	1	1	496
15	1	1	1	1	494
0	1	1	1	1	494
1	1	1	1	1	494
2	1	1	1	1	494
3	1	1	1	1	494
4	1	1	1	1	494
5	1	1	1	1	496
6	1	1	1	1	492
7	1	1	1	1	494
8	1	1	1	1	496
9	1	1	1	1	492
10	1	1	1	1	489
11	1	1	1	1	496
12	1	1	1	1	496
13	1	1	1	1	495
14	1	1	1	1	496
15	1	1	1	1	496
0	1	1	1	1	496
1	1	1	1	1	497
2	1	1	1	1	496
3	1	1	1	1	496
4	1	1	1	1	496
5	1	1	1	1	496
6	1	1	1	1	504
7	1	1	1	1	512
8	1	1	1	1	515
9	1	1	1	1	515
10	1	1	1	1	511
11	1	1	1	1	512
12	1	1	1	1	508
13	1	1	1	1	495
14	1	1	1	1	465
15	1	1	1	1	472
0	1	1	1	1	487
1	1	1	1	1	487
2	1	1	1	1	492
3	1	1	1	1	496
4	1	1	1	1	496
5	1	1	1	1	499
6	1	1	1	1	499
7	1	1	1	1	499
8	1	1	1	1	497
9	1	1	1	1	494
10	1	1	1	1	487
11	1	1	1	1	492
12	1	1	1	1	496
13	1	1	1	1	499
14	1	1	1	1	499
15	1	1	1	1	499
0	1	1	1	1	499
1	1	1	1	1	499
2	1	1	1	1	499
3	1	1	1	1	504
4	1	1	1	1	504
5	1	1	1	1	504
6	1	1	1	1	504
7	1	1	1	1	504
8	1	1	1	1	504
9	1	1	1	1	505
10	1	1	1	1	504
11	1	1	1	1	505
12	1	1	1	1	504
13	1	1	1	1	505
14	1	1	1	1	504
15	1	1	1	1	497
0	1	1	1	1	497
1	1	1	1	1	497
2	1	1	1	1	497
3	1	1	1	1	497
4	1	1	1	1	496
5	1	1	1	1	497
6	1	1	1	1	496
7	1	1	1	1	497
8	1	1	1	1	497
9	1	1	1	1	504
10	1	1	1	1	504
11	1	1	1	1	496
12	1	1	1	1	492
13	1	1	1	1	497
14	1	1	1	1	504
15	1	1	1	1	505
0	1	1	1	1	504
1	1	1	1	1	504
2	1	1	1	1	508
3	1	1	1	1	504
4	1	1	1	1	504
5	1	1	1	1	508
6	1	1	1	1	504
7	1	1	1	1	504
8	1	1	1	1	499
9	1	1	1	1	497
10	1	1	1	1	497
11	1	1	1	1	497
12	1	1	1	1	496
13	1	1	1	1	496
14	1	1	1	1	497
15	1	1	1	1	496
0	1	1	1	1	497
1	1	1	1	1	496
2	1	1	1	1	497
3	1	1	1	1	497
4	1	1	1	1	499
5	1	1	1	1	502
6	1	1	1	1	504
7	1	1	1	1	504
8	1	1	1	1	504
9	1	1	1	1	499
10	1	1	1	1	487
11	1	1	1	1	487
12	1	1	1	1	492
13	1	1	1	1	492
14	1	1	1	1	492
15	1	1	1	1	492
0	1	1	1	1	492
1	1	1	1	1	496
2	1	1	1	1	497
3	1	1	1	1	499
4	1	1	1	1	504
5	1	1	1	1	504
6	1	1	1	1	505
7	1	1	1	1	504
8	1	1	1	1	504
9	1	1	1	1	499
10	1	1	1	1	494
11	1	1	1	1	494
12	1	1	1	1	496
13	1	1	1	1	487
14	1	1	1	1	487
15	1	1	1	1	492
0	1	1	1	1	492
1	1	1	1	1	494
2	1	1	1	1	494
3	1	1	1	1	496
4	1	1	1	1	496
5	1	1	1	1	496
6	1	1	1	1	496
7	1	1	1	1	496
8	1	1	1	1	496
9	1	1	1	1	496
10	1	1	1	1	496
11	1	1	1	1	492
12	1	1	1	1	496
13	1	1	1	1	497
14	1	1	1	1	497
15	1	1	1	1	496
0	1	1	1	1	496
1	1	1	1	1	496
2	1	1	1	1	492
3	1	1	1	1	492
4	1	1	1	1	492
5	1	1	1	1	489
6	1	1	1	1	489
7	1	1	1	1	489
8	1	1	1	1	492
9	1	1	1	1	487
10	1	1	1	1	492
11	1	1	1	1	496
12	1	1	1	1	499
13	1	1	1	1	497
14	1	1	1	1	499
15	1	1	1	1	504
0	1	1	1	1	504
1	1	1	1	1	499
2	1	1	1	1	499
3	1	1	1	1	496
4	1	1	1	1	496
5	1	1	1	1	496
6	1	1	1	1	494
7	1	1	1	1	492
8	1	1	1	1	492
9	1	1	1	1	492
10	1	1	1	1	487
11	1	1	1	1	487
12	1	1	1	1	487
13	1	1	1	1	492
14	1	1	1	1	496
15	1	1	1	1	494
0	1	1	1	1	496
1	1	1	1	1	496
2	1	1	1	1	497
3	1	1	1	1	496
4	1	1	1	1	497
5	1	1	1	1	504
6	1	1	1	1	499
7	1	1	1	1	496
8	1	1	1	1	494
9	1	1	1	1	494
10	1	1	1	1	492
11	1	1	1	1	492
12	1	1	1	1	492
13	1	1	1	1	492
14	1	1	1	1	491
15	1	1	1	1	492
0	1	1	1	1	492
1	1	1	1	1	495
2	1	1	1	1	496
3	1	1	1	1	496
4	1	1	1	1	496
5	1	1	1	1	496
6	1	1	1	1	494
7	1	1	1	1	496
8	1	1	1	1	497
9	1	1	1	1	497
10	1	1	1	1	496
11	1	1	1	1	496
12	1	1	1	1	494
13	1	1	1	1	494
14	1	1	1	1	496
15	1	1	1	1	496
0	1	1	1	1	492
1	1	1	1	1	492
2	1	1	1	1	492
3	1	1	1	1	492
4	1	1	1	1	492
5	1	1	1	1	492
6	1	1	1	1	487
7	1	1	1	1	492
8	1	1	1	1	492
9	1	1	1	1	492
10	1	1	1	1	494
11	1	1	1	1	496
12	1	1	1	1	494
13	1	1	1	1	494
14	1	1	1	1	492
15	1	1	1	1	487
0	1	1	1	1	487
1	1	1	1	1	487
2	1	1	1	1	487
3	1	1	1	1	487
4	1	1	1	1	487
5	1	1	1	1	487
6	1	1	1	1	487
7	1	1	1	1	492
8	1	1	1	1	487
9	1	1	1	1	487
10	1	1	1	1	487
11	1	1	1	1	492
12	1	1	1	1	496
13	1	1	1	1	496
14	1	1	1	1	496
15	1	1	1	1	496
0	1	1	1	1	492
1	1	1	1	1	483
2	1	1	1	1	492
3	1	1	1	1	496
4	1	1	1	1	497
5	1	1	1	1	496
6	1	1	1	1	492
7	1	1	1	1	492
8	1	1	1	1	487
9	1	1	1	1	487
10	1	1	1	1	481
11	1	1	1	1	480
12	1	1	1	1	486
13	1	1	1	1	487
14	1	1	1	1	487
15	1	1	1	1	492
0	1	1	1	1	489
1	1	1	1	1	487
2	1	1	1	1	486
3	1	1	1	1	487
4	1	1	1	1	487
5	1	1	1	1	487
6	1	1	1	1	487
7	1	1	1	1	487
8	1	1	1	1	487
9	1	1	1	1	487
10	1	1	1	1	483
11	1	1	1	1	483
12	1	1	1	1	483
13	1	1	1	1	483
14	1	1	1	1	486
15	1	1	1	1	487
0	1	1	1	1	489
1	1	1	1	1	494
2	1	1	1	1	496
3	1	1	1	1	496
4	1	1	1	1	496
5	1	1	1	1	496
6	1	1	1	1	496
7	1	1	1	1	496
8	1	1	1	1	494
9	1	1	1	1	492
10	1	1	1	1	492
11	1	1	1	1	489
12	1	1	1	1	487
13	1	1	1	1	492
14	1	1	1	1	494
15	1	1	1	1	492
0	1	1	1	1	494
1	1	1	1	1	494
2	1	1	1	1	492
3	1	1	1	1	487
4	1	1	1	1	483
5	1	1	1	1	487
6	1	1	1	1	487
7	1	1	1	1	492
8	1	1	1	1	492
9	1	1	1	1	492
10	1	1	1	1	492
11	1	1	1	1	492
12	1	1	1	1	492
13	1	1	1	1	492
14	1	1	1	1	492
15	1	1	1	1	492
0	1	1	1	1	492
1	1	1	1	1	487
2	1	1	1	1	492
3	1	1	1	1	492
4	1	1	1	1	492
5	1	1	1	1	492
6	1	1	1	1	492
7	1	1	1	1	492
8	1	1	1	1	487
9	1	1	1	1	487
10	1	1	1	1	492
11	1	1	1	1	492
12	1	1	1	1	492
13	1	1	1	1	494
14	1	1	1	1	492
15	1	1	1	1	494
0	1	1	1	1	494
1	1	1	1	1	492
2	1	1	1	1	492
3	1	1	1	1	492
4	1	1	1	1	489
5	1	1	1	1	487
6	1	1	1	1	487
7	1	1	1	1	487
8	1	1	1	1	487
9	1	1	1	1	486
10	1	1	1	1	486
11	1	1	1	1	487
12	1	1	1	1	487
13	1	1	1	1	487
14	1	1	1	1	487
15	1	1	1	1	487
0	1	1	1	1	497
1	1	1	1	1	504
2	1	1	1	1	504
3	1	1	1	1	504
4	1	1	1	1	499
5	1	1	1	1	497
6	1	1	1	1	494
7	1	1	1	1	486
8	1	1	1	1	486
9	1	1	1	1	487
10	1	1	1	1	494
11	1	1	1	1	492
12	1	1	1	1	492
13	1	1	1	1	487
14	1	1	1	1	486
15	1	1	1	1	483
0	1	1	1	1	486
1	1	1	1	1	483
2	1	1	1	1	489
3	1	1	1	1	497
4	1	1	1	1	502
5	1	1	1	1	504
6	1	1	1	1	499
7	1	1	1	1	496
8	1	1	1	1	494
9	1	1	1	1	494
10	1	1	1	1	496
11	1	1	1	1	496
12	1	1	1	1	496
13	1	1	1	1	492
14	1	1	1	1	492
15	1	1	1	1	492
0	1	1	1	1	492
1	1	1	1	1	489
2	1	1	1	1	492
3	1	1	1	1	492
4	1	1	1	1	492
5	1	1	1	1	492
6	1	1	1	1	492
7	1	1	1	1	492
8	1	1	1	1	494
9	1	1	1	1	494
10	1	1	1	1	494
11	1	1	1	1	494
12	1	1	1	1	494
13	1	1	1	1	492
14	1	1	1	1	487
15	1	1	1	1	487
0	1	1	1	1	487
1	1	1	1	1	487
2	1	1	1	1	487
3	1	1	1	1	487
4	1	1	1	1	492
5	1	1	1	1	494
6	1	1	1	1	496
7	1	1	1	1	497
8	1	1	1	1	496
9	1	1	1	1	496
10	1	1	1	1	496
11	1	1	1	1	496
12	1	1	1	1	497
13	1	1	1	1	499
14	1	1	1	1	504
15	1	1	1	1	504
0	1	1	1	1	499
1	1	1	1	1	494
2	1	1	1	1	489
3	1	1	1	1	494
4	1	1	1	1	487
5	1	1	1	1	487
6	1	1	1	1	487
7	1	1	1	1	492
8	1	1	1	1	492
9	1	1	1	1	496
10	1	1	1	1	496
11	1	1	1	1	496
12	1	1	1	1	492
13	1	1	1	1	492
14	1	1	1	1	494
15	1	1	1	1	494
0	1	1	1	1	496
1	1	1	1	1	496
2	1	1	1	1	496
3	1	1	1	1	496
4	1	1	1	1	497
5	1	1	1	1	499
6	1	1	1	1	499
7	1	1	1	1	497
8	1	1	1	1	496
9	1	1	1	1	492
10	1	1	1	1	483
11	1	1	1	1	480
12	1	1	1	1	481
13	1	1	1	1	487
14	1	1	1	1	487
15	1	1	1	1	487
0	1	1	1	1	494
1	1	1	1	1	497
2	1	1	1	1	502
3	1	1	1	1	499
4	1	1	1	1	497
5	1	1	1	1	496
6	1	1	1	1	496
7	1	1	1	1	494
8	1	1	1	1	492
9	1	1	1	1	487
10	1	1	1	1	494
11	1	1	1	1	496
12	1	1	1	1	497
13	1	1	1	1	496
14	1	1	1	1	496
15	1	1	1	1	496
0	1	1	1	1	496
1	1	1	1	1	496
2	1	1	1	1	496
3	1	1	1	1	496
4	1	1	1	1	494
5	1	1	1	1	494
6	1	1	1	1	494
7	1	1	1	1	492
8	1	1	1	1	495
9	1	1	1	1	496
10	1	1	1	1	496
11	1	1	1	1	496
12	1	1	1	1	496
13	1	1	1	1	497
14	1	1	1	1	499
15	1	1	1	1	499
0	1	1	1	1	499
1	1	1	1	1	496
2	1	1	1	1	494
3	1	1	1	1	491
4	1	1	1	1	492
5	1	1	1	1	492
6	1	1	1	1	492
7	1	1	1	1	489
8	1	1	1	1	494
9	1	1	1	1	497
10	1	1	1	1	499
11	1	1	1	1	496
12	1	1	1	1	497
13	1	1	1	1	505
14	1	1	1	1	504
15	1	1	1	1	499
0	1	1	1	1	497
1	1	1	1	1	496
2	1	1	1	1	497
3	1	1	1	1	496
4	1	1	1	1	492
5	1	1	1	1	492
6	1	1	1	1	496
7	1	1	1	1	496
8	1	1	1	1	496
9	1	1	1	1	502
10	1	1	1	1	499
11	1	1	1	1	502
12	1	1	1	1	502
13	1	1	1	1	504
14	1	1	1	1	504
15	1	1	1	1	504
0	1	1	1	1	504
1	1	1	1	1	504
2	1	1	1	1	499
3	1	1	1	1	499
4	1	1	1	1	499
5	1	1	1	1	497
6	1	1	1	1	504
7	1	1	1	1	504
8	1	1	1	1	505
9	1	1	1	1	504
10	1	1	1	1	504
11	1	1	1	1	499
12	1	1	1	1	496
13	1	1	1	1	486
14	1	1	1	1	486
15	1	1	1	1	494
0	1	1	1	1	496
1	1	1	1	1	496
2	1	1	1	1	499
3	1	1	1	1	504
4	1	1	1	1	504
5	1	1	1	1	504
6	1	1	1	1	499
7	1	1	1	1	504
8	1	1	1	1	504
9	1	1	1	1	496
10	1	1	1	1	487
11	1	1	1	1	487
12	1	1	1	1	496
13	1	1	1	1	496
14	1	1	1	1	496
15	1	1	1	1	497
0	1	1	1	1	496
1	1	1	1	1	496
2	1	1	1	1	496
3	1	1	1	1	499
4	1	1	1	1	504
5	1	1	1	1	504
6	1	1	1	1	502
7	1	1	1	1	502
8	1	1	1	1	504
9	1	1	1	1	504
10	1	1	1	1	504
11	1	1	1	1	496
12	1	1	1	1	496
13	1	1	1	1	496
14	1	1	1	1	499
15	1	1	1	1	499
0	1	1	1	1	499
1	1	1	1	1	499
2	1	1	1	1	499
3	1	1	1	1	497
4	1	1	1	1	496
5	1	1	1	1	492
6	1	1	1	1	492
7	1	1	1	1	492
8	1	1	1	1	492
9	1	1	1	1	496
10	1	1	1	1	497
11	1	1	1	1	499
12	1	1	1	1	504
13	1	1	1	1	504
14	1	1	1	1	504
15	1	1	1	1	504
0	1	1	1	1	504
1	1	1	1	1	499
2	1	1	1	1	499
3	1	1	1	1	497
4	1	1	1	1	496
5	1	1	1	1	497
6	1	1	1	1	497
7	1	1	1	1	496
8	1	1	1	1	496
9	1	1	1	1	496
10	1	1	1	1	496
11	1	1	1	1	496
12	1	1	1	1	496
13	1	1	1	1	496
14	1	1	1	1	497
15	1	1	1	1	499
0	1	1	1	1	499
1	1	1	1	1	497
2	1	1	1	1	496
3	1	1	1	1	496
4	1	1	1	1	492
5	1	1	1	1	492
6	1	1	1	1	494
7	1	1	1	1	492
8	1	1	1	1	492
9	1	1	1	1	494
10	1	1	1	1	496
11	1	1	1	1	496
12	1	1	1	1	496
13	1	1	1	1	496
14	1	1	1	1	487
15	1	1	1	1	487
0	1	1	1	1	489
1	1	1	1	1	487
2	1	1	1	1	489
3	1	1	1	1	489
4	1	1	1	1	489
5	1	1	1	1	499
6	1	1	1	1	504
7	1	1	1	1	504
8	1	1	1	1	504
9	1	1	1	1	496
10	1	1	1	1	487
11	1	1	1	1	492
12	1	1	1	1	487
13	1	1	1	1	487
14	1	1	1	1	492
15	1	1	1	1	492
0	1	1	1	1	492
1	1	1	1	1	496
2	1	1	1	1	496
3	1	1	1	1	499
4	1	1	1	1	499
5	1	1	1	1	499
6	1	1	1	1	499
7	1	1	1	1	497
8	1	1	1	1	496
9	1	1	1	1	494
10	1	1	1	1	497
11	1	1	1	1	496
12	1	1	1	1	496
13	1	1	1	1	496
14	1	1	1	1	497
15	1	1	1	1	497
0	1	1	1	1	496
1	1	1	1	1	494
2	1	1	1	1	495
3	1	1	1	1	495
4	1	1	1	1	496
5	1	1	1	1	496
6	1	1	1	1	497
7	1	1	1	1	499
8	1	1	1	1	499
9	1	1	1	1	499
10	1	1	1	1	499
11	1	1	1	1	499
12	1	1	1	1	499
13	1	1	1	1	504
14	1	1	1	1	504
15	1	1	1	1	504
0	1	1	1	1	502
1	1	1	1	1	499
2	1	1	1	1	499
3	1	1	1	1	499
4	1	1	1	1	497
5	1	1	1	1	496
6	1	1	1	1	494
7	1	1	1	1	494
8	1	1	1	1	494
9	1	1	1	1	496
10	1	1	1	1	496
11	1	1	1	1	497
12	1	1	1	1	499
13	1	1	1	1	504
14	1	1	1	1	504
15	1	1	1	1	508
0	1	1	1	1	511
1	1	1	1	1	511
2	1	1	1	1	508
3	1	1	1	1	505
4	1	1	1	1	505
5	1	1	1	1	504
6	1	1	1	1	499
7	1	1	1	1	497
8	1	1	1	1	497
9	1	1	1	1	499
10	1	1	1	1	499
11	1	1	1	1	499
12	1	1	1	1	504
13	1	1	1	1	504
14	1	1	1	1	505
15	1	1	1	1	505
0	1	1	1	1	504
1	1	1	1	1	504
2	1	1	1	1	504
3	1	1	1	1	496
4	1	1	1	1	496
5	1	1	1	1	504
6	1	1	1	1	504
7	1	1	1	1	504
8	1	1	1	1	504
9	1	1	1	1	504
10	1	1	1	1	504
11	1	1	1	1	497
12	1	1	1	1	494
13	1	1	1	1	496
14	1	1	1	1	492
15	1	1	1	1	492
0	1	1	1	1	492
1	1	1	1	1	492
2	1	1	1	1	496
3	1	1	1	1	497
4	1	1	1	1	497
5	1	1	1	1	504
6	1	1	1	1	510
7	1	1	1	1	519
8	1	1	1	1	519
9	1	1	1	1	515
10	1	1	1	1	512
11	1	1	1	1	510
12	1	1	1	1	504
13	1	1	1	1	504
14	1	1	1	1	504
15	1	1	1	1	504
0	1	1	1	1	504
1	1	1	1	1	504
2	1	1	1	1	499
3	1	1	1	1	499
4	1	1	1	1	499
5	1	1	1	1	499
6	1	1	1	1	499
7	1	1	1	1	499
8	1	1	1	1	499
9	1	1	1	1	499
10	1	1	1	1	499
11	1	1	1	1	502
12	1	1	1	1	502
13	1	1	1	1	499
14	1	1	1	1	502
15	1	1	1	1	504
0	1	1	1	1	502
1	1	1	1	1	499
2	1	1	1	1	499
3	1	1	1	1	497
4	1	1	1	1	495
5	1	1	1	1	496
6	1	1	1	1	497
7	1	1	1	1	497
8	1	1	1	1	496
9	1	1	1	1	497
10	1	1	1	1	504
11	1	1	1	1	508
12	1	1	1	1	508
13	1	1	1	1	510
14	1	1	1	1	511
15	1	1	1	1	510
0	1	1	1	1	505
1	1	1	1	1	504
2	1	1	1	1	499
3	1	1	1	1	492
4	1	1	1	1	487
5	1	1	1	1	492
6	1	1	1	1	494
7	1	1	1	1	494
8	1	1	1	1	494
9	1	1	1	1	496
10	1	1	1	1	496
11	1	1	1	1	497
12	1	1	1	1	497
13	1	1	1	1	499
14	1	1	1	1	499
15	1	1	1	1	496
0	1	1	1	1	496
1	1	1	1	1	496
2	1	1	1	1	496
3	1	1	1	1	496
4	1	1	1	1	497
5	1	1	1	1	499
6	1	1	1	1	499
7	1	1	1	1	499
8	1	1	1	1	499
9	1	1	1	1	499
10	1	1	1	1	497
11	1	1	1	1	497
12	1	1	1	1	502
13	1	1	1	1	504
14	1	1	1	1	502
15	1	1	1	1	499
0	1	1	1	1	497
1	1	1	1	1	497
2	1	1	1	1	494
3	1	1	1	1	483
4	1	1	1	1	487
5	1	1	1	1	492
6	1	1	1	1	494
7	1	1	1	1	497
8	1	1	1	1	497
9	1	1	1	1	499
10	1	1	1	1	499
11	1	1	1	1	504
12	1	1	1	1	504
13	1	1	1	1	504
14	1	1	1	1	497
15	1	1	1	1	496
0	1	1	1	1	496
1	1	1	1	1	496
2	1	1	1	1	496
3	1	1	1	1	494
4	1	1	1	1	494
5	1	1	1	1	494
6	1	1	1	1	492
7	1	1	1	1	492
8	1	1	1	1	496
9	1	1	1	1	496
10	1	1	1	1	497
11	1	1	1	1	497
12	1	1	1	1	504
13	1	1	1	1	508
14	1	1	1	1	508
15	1	1	1	1	505
0	1	1	1	1	504
1	1	1	1	1	499
2	1	1	1	1	499
3	1	1	1	1	496
4	1	1	1	1	489
5	1	1	1	1	492
6	1	1	1	1	494
7	1	1	1	1	494
8	1	1	1	1	489
9	1	1	1	1	487
10	1	1	1	1	487
11	1	1	1	1	489
12	1	1	1	1	492
13	1	1	1	1	492
14	1	1	1	1	494
15	1	1	1	1	497
0	1	1	1	1	505
1	1	1	1	1	508
2	1	1	1	1	504
3	1	1	1	1	502
4	1	1	1	1	504
5	1	1	1	1	499
6	1	1	1	1	499
7	1	1	1	1	497
8	1	1	1	1	496
9	1	1	1	1	496
10	1	1	1	1	496
11	1	1	1	1	494
12	1	1	1	1	494
13	1	1	1	1	494
14	1	1	1	1	494
15	1	1	1	1	494
0	1	1	1	1	494
1	1	1	1	1	496
2	1	1	1	1	496
3	1	1	1	1	497
4	1	1	1	1	499
5	1	1	1	1	497
6	1	1	1	1	499
7	1	1	1	1	499
8	1	1	1	1	499
9	1	1	1	1	499
10	1	1	1	1	497
11	1	1	1	1	496
12	1	1	1	1	496
13	1	1	1	1	494
14	1	1	1	1	487
15	1	1	1	1	487
0	1	1	1	1	492
1	1	1	1	1	492
2	1	1	1	1	487
3	1	1	1	1	487
4	1	1	1	1	492
5	1	1	1	1	497
6	1	1	1	1	504
7	1	1	1	1	504
8	1	1	1	1	499
9	1	1	1	1	496
10	1	1	1	1	496
11	1	1	1	1	492
12	1	1	1	1	487
13	1	1	1	1	492
14	1	1	1	1	494
15	1	1	1	1	494
0	1	1	1	1	494
1	1	1	1	1	492
2	1	1	1	1	494
3	1	1	1	1	492
4	1	1	1	1	492
5	1	1	1	1	487
6	1	1	1	1	489
7	1	1	1	1	492
8	1	1	1	1	492
9	1	1	1	1	494
10	1	1	1	1	494
11	1	1	1	1	496
12	1	1	1	1	496
13	1	1	1	1	496
14	1	1	1	1	496
15	1	1	1	1	496
0	1	1	1	1	496
1	1	1	1	1	496
2	1	1	1	1	489
3	1	1	1	1	487
4	1	1	1	1	483
5	1	1	1	1	483
6	1	1	1	1	486
7	1	1	1	1	487
8	1	1	1	1	487
9	1	1	1	1	492
10	1	1	1	1	496
11	1	1	1	1	499
12	1	1	1	1	504
13	1	1	1	1	504
14	1	1	1	1	499
15	1	1	1	1	496
0	1	1	1	1	496
1	1	1	1	1	496
2	1	1	1	1	496
3	1	1	1	1	496
4	1	1	1	1	497
5	1	1	1	1	497
6	1	1	1	1	499
7	1	1	1	1	499
8	1	1	1	1	496
9	1	1	1	1	495
10	1	1	1	1	496
11	1	1	1	1	496
12	1	1	1	1	497
13	1	1	1	1	496
14	1	1	1	1	496
15	1	1	1	1	497
0	1	1	1	1	497
1	1	1	1	1	496
2	1	1	1	1	487
3	1	1	1	1	487
4	1	1	1	1	492
5	1	1	1	1	492
6	1	1	1	1	494
7	1	1	1	1	494
8	1	1	1	1	494
9	1	1	1	1	494
10	1	1	1	1	494
11	1	1	1	1	494
12	1	1	1	1	494
13	1	1	1	1	492
14	1	1	1	1	494
15	1	1	1	1	492
0	1	1	1	1	492
1	1	1	1	1	492
2	1	1	1	1	496
3	1	1	1	1	502
4	1	1	1	1	499
5	1	1	1	1	499
6	1	1	1	1	499
7	1	1	1	1	497
8	1	1	1	1	494
9	1	1	1	1	492
10	1	1	1	1	487
11	1	1	1	1	486
12	1	1	1	1	494
13	1	1	1	1	492
14	1	1	1	1	487
15	1	1	1	1	487
0	1	1	1	1	492
1	1	1	1	1	492
2	1	1	1	1	489
3	1	1	1	1	492
4	1	1	1	1	496
5	1	1	1	1	496
6	1	1	1	1	496
7	1	1	1	1	496
8	1	1	1	1	494
9	1	1	1	1	494
10	1	1	1	1	487
11	1	1	1	1	483
12	1	1	1	1	492
13	1	1	1	1	497
14	1	1	1	1	497
15	1	1	1	1	499
0	1	1	1	1	496
1	1	1	1	1	492
2	1	1	1	1	494
3	1	1	1	1	487
4	1	1	1	1	487
5	1	1	1	1	492
6	1	1	1	1	492
7	1	1	1	1	489
8	1	1	1	1	491
9	1	1	1	1	489
10	1	1	1	1	492
11	1	1	1	1	492
12	1	1	1	1	492
13	1	1	1	1	494
14	1	1	1	1	496
15	1	1	1	1	496
0	1	1	1	1	496
1	1	1	1	1	496
2	1	1	1	1	496
3	1	1	1	1	496
4	1	1	1	1	494
5	1	1	1	1	492
6	1	1	1	1	487
7	1	1	1	1	487
8	1	1	1	1	487
9	1	1	1	1	487
10	1	1	1	1	487
11	1	1	1	1	492
12	1	1	1	1	492
13	1	1	1	1	494
14	1	1	1	1	496
15	1	1	1	1	499
0	1	1	1	1	504
1	1	1	1	1	504
2	1	1	1	1	504
3	1	1	1	1	499
4	1	1	1	1	502
5	1	1	1	1	499
6	1	1	1	1	499
7	1	1	1	1	499
8	1	1	1	1	497
9	1	1	1	1	499
10	1	1	1	1	497
11	1	1	1	1	496
12	1	1	1	1	492
13	1	1	1	1	487
14	1	1	1	1	489
15	1	1	1	1	492
0	1	1	1	1	491
1	1	1	1	1	487
2	1	1	1	1	492
3	1	1	1	1	494
4	1	1	1	1	496
5	1	1	1	1	497
6	1	1	1	1	499
7	1	1	1	1	504
8	1	1	1	1	504
9	1	1	1	1	499
10	1	1	1	1	497
11	1	1	1	1	497
12	1	1	1	1	497
13	1	1	1	1	496
14	1	1	1	1	496
15	1	1	1	1	496
0	1	1	1	1	496
1	1	1	1	1	497
2	1	1	1	1	502
3	1	1	1	1	504
4	1	1	1	1	508
5	1	1	1	1	505
6	1	1	1	1	504
7	1	1	1	1	497
8	1	1	1	1	487
9	1	1	1	1	487
10	1	1	1	1	492
11	1	1	1	1	487
12	1	1	1	1	492
13	1	1	1	1	494
14	1	1	1	1	496
15	1	1	1	1	497
0	1	1	1	1	496
1	1	1	1	1	492
2	1	1	1	1	495
3	1	1	1	1	499
4	1	1	1	1	499
5	1	1	1	1	494
6	1	1	1	1	494
7	1	1	1	1	497
8	1	1	1	1	499
9	1	1	1	1	497
10	1	1	1	1	496
11	1	1	1	1	496
12	1	1	1	1	496
13	1	1	1	1	496
14	1	1	1	1	497
15	1	1	1	1	496
0	1	1	1	1	497
1	1	1	1	1	502
2	1	1	1	1	504
3	1	1	1	1	504
4	1	1	1	1	504
5	1	1	1	1	504
6	1	1	1	1	504
7	1	1	1	1	499
8	1	1	1	1	494
9	1	1	1	1	483
10	1	1	1	1	487
11	1	1	1	1	494
12	1	1	1	1	494
13	1	1	1	1	494
14	1	1	1	1	494
15	1	1	1	1	494
0	1	1	1	1	494
1	1	1	1	1	496
2	1	1	1	1	496
3	1	1	1	1	494
4	1	1	1	1	496
5	1	1	1	1	496
6	1	1	1	1	496
7	1	1	1	1	496
8	1	1	1	1	494
9	1	1	1	1	492
10	1	1	1	1	496
11	1	1	1	1	497
12	1	1	1	1	497
13	1	1	1	1	496
14	1	1	1	1	496
15	1	1	1	1	496
0	1	1	1	1	496
1	1	1	1	1	496
2	1	1	1	1	496
3	1	1	1	1	496
4	1	1	1	1	496
5	1	1	1	1	496
6	1	1	1	1	496
7	1	1	1	1	496
8	1	1	1	1	496
9	1	1	1	1	496
10	1	1	1	1	496
11	1	1	1	1	496
12	1	1	1	1	494
13	1	1	1	1	496
14	1	1	1	1	496
15	1	1	1	1	497
0	1	1	1	1	497
1	1	1	1	1	497
2	1	1	1	1	496
3	1	1	1	1	496
4	1	1	1	1	494
5	1	1	1	1	496
6	1	1	1	1	494
7	1	1	1	1	494
8	1	1	1	1	494
9	1	1	1	1	496
10	1	1	1	1	497
11	1	1	1	1	496
12	1	1	1	1	496
13	1	1	1	1	496
14	1	1	1	1	492
15	1	1	1	1	483
0	1	1	1	1	480
1	1	1	1	1	487
2	1	1	1	1	489
3	1	1	1	1	492
4	1	1	1	1	492
5	1	1	1	1	492
6	1	1	1	1	496
7	1	1	1	1	496
8	1	1	1	1	494
9	1	1	1	1	494
10	1	1	1	1	496
11	1	1	1	1	497
12	1	1	1	1	499
13	1	1	1	1	504
14	1	1	1	1	499
15	1	1	1	1	497
0	1	1	1	1	496
1	1	1	1	1	492
2	1	1	1	1	492
3	1	1	1	1	494
4	1	1	1	1	496
5	1	1	1	1	496
6	1	1	1	1	499
7	1	1	1	1	499
8	1	1	1	1	499
9	1	1	1	1	496
10	1	1	1	1	496
11	1	1	1	1	492
12	1	1	1	1	487
13	1	1	1	1	492
14	1	1	1	1	496
15	1	1	1	1	494
0	1	1	1	1	494
1	1	1	1	1	496
2	1	1	1	1	494
3	1	1	1	1	492
4	1	1	1	1	492
5	1	1	1	1	492
6	1	1	1	1	494
7	1	1	1	1	496
8	1	1	1	1	496
9	1	1	1	1	496
10	1	1	1	1	494
11	1	1	1	1	492
12	1	1	1	1	492
13	1	1	1	1	487
14	1	1	1	1	486
15	1	1	1	1	487
0	1	1	1	1	487
1	1	1	1	1	487
2	1	1	1	1	487
3	1	1	1	1	492
4	1	1	1	1	496
5	1	1	1	1	496
6	1	1	1	1	496
7	1	1	1	1	496
8	1	1	1	1	494
9	1	1	1	1	492
10	1	1	1	1	494
11	1	1	1	1	494
12	1	1	1	1	496
13	1	1	1	1	496
14	1	1	1	1	496
15	1	1	1	1	496
0	1	1	1	1	496
1	1	1	1	1	494
2	1	1	1	1	492
3	1	1	1	1	483
4	1	1	1	1	476
5	1	1	1	1	480
6	1	1	1	1	483
7	1	1	1	1	486
8	1	1	1	1	487
9	1	1	1	1	487
10	1	1	1	1	487
11	1	1	1	1	492
12	1	1	1	1	492
13	1	1	1	1	494
14	1	1	1	1	496
15	1	1	1	1	497
0	1	1	1	1	497
1	1	1	1	1	494
2	1	1	1	1	492
3	1	1	1	1	492
4	1	1	1	1	487
5	1	1	1	1	483
6	1	1	1	1	476
7	1	1	1	1	478
8	1	1	1	1	483
9	1	1	1	1	487
10	1	1	1	1	487
11	1	1	1	1	492
12	1	1	1	1	494
13	1	1	1	1	494
14	1	1	1	1	494
15	1	1	1	1	492
0	1	1	1	1	492
1	1	1	1	1	492
2	1	1	1	1	487
3	1	1	1	1	486
4	1	1	1	1	487
5	1	1	1	1	492
6	1	1	1	1	487
7	1	1	1	1	492
8	1	1	1	1	496
9	1	1	1	1	496
10	1	1	1	1	496
11	1	1	1	1	496
12	1	1	1	1	492
13	1	1	1	1	492
14	1	1	1	1	494
15	1	1	1	1	492
0	1	1	1	1	492
1	1	1	1	1	492
2	1	1	1	1	492
3	1	1	1	1	492
4	1	1	1	1	492
5	1	1	1	1	492
6	1	1	1	1	492
7	1	1	1	1	492
8	1	1	1	1	492
9	1	1	1	1	492
10	1	1	1	1	492
11	1	1	1	1	487
12	1	1	1	1	487
13	1	1	1	1	487
14	1	1	1	1	487
15	1	1	1	1	489
0	1	1	1	1	492
1	1	1	1	1	496
2	1	1	1	1	496
3	1	1	1	1	496
4	1	1	1	1	492
5	1	1	1	1	494
6	1	1	1	1	496
7	1	1	1	1	494
8	1	1	1	1	487
9	1	1	1	1	487
10	1	1	1	1	487
11	1	1	1	1	487
12	1	1	1	1	487
13	1	1	1	1	487
14	1	1	1	1	487
15	1	1	1	1	487
0	1	1	1	1	487
1	1	1	1	1	487
2	1	1	1	1	487
3	1	1	1	1	487
4	1	1	1	1	487
5	1	1	1	1	487
6	1	1	1	1	487
7	1	1	1	1	487
8	1	1	1	1	489
9	1	1	1	1	492
10	1	1	1	1	492
11	1	1	1	1	492
12	1	1	1	1	492
13	1	1	1	1	492
14	1	1	1	1	492
15	1	1	1	1	492
0	1	1	1	1	487
1	1	1	1	1	487
2	1	1	1	1	487
3	1	1	1	1	487
4	1	1	1	1	492
5	1	1	1	1	494
6	1	1	1	1	492
7	1	1	1	1	492
8	1	1	1	1	492
9	1	1	1	1	494
10	1	1	1	1	487
11	1	1	1	1	483
12	1	1	1	1	487
13	1	1	1	1	492
14	1	1	1	1	495
15	1	1	1	1	492
0	1	1	1	1	487
1	1	1	1	1	481
2	1	1	1	1	486
3	1	1	1	1	487
4	1	1	1	1	487
5	1	1	1	1	492
6	1	1	1	1	487
7	1	1	1	1	489
8	1	1	1	1	492
9	1	1	1	1	487
10	1	1	1	1	487
11	1	1	1	1	487
12	1	1	1	1	487
13	1	1	1	1	487
14	1	1	1	1	487
15	1	1	1	1	489
0	1	1	1	1	487
1	1	1	1	1	492
2	1	1	1	1	492
3	1	1	1	1	492
4	1	1	1	1	492
5	1	1	1	1	492
6	1	1	1	1	492
7	1	1	1	1	492
8	1	1	1	1	487
9	1	1	1	1	487
10	1	1	1	1	487
11	1	1	1	1	487
12	1	1	1	1	487
13	1	1	1	1	486
14	1	1	1	1	487
15	1	1	1	1	487
0	1	1	1	1	483
1	1	1	1	1	483
2	1	1	1	1	483
3	1	1	1	1	486
4	1	1	1	1	487
5	1	1	1	1	494
6	1	1	1	1	496
7	1	1	1	1	499
8	1	1	1	1	504
9	1	1	1	1	502
10	1	1	1	1	496
11	1	1	1	1	487
12	1	1	1	1	483
13	1	1	1	1	487
14	1	1	1	1	487
15	1	1	1	1	487
0	1	1	1	1	487
1	1	1	1	1	487
2	1	1	1	1	487
3	1	1	1	1	487
4	1	1	1	1	487
5	1	1	1	1	483
6	1	1	1	1	486
7	1	1	1	1	486
8	1	1	1	1	486
9	1	1	1	1	487
10	1	1	1	1	487
11	1	1	1	1	487
12	1	1	1	1	487
13	1	1	1	1	487
14	1	1	1	1	487
15	1	1	1	1	487
0	1	1	1	1	487
1	1	1	1	1	487
2	1	1	1	1	487
3	1	1	1	1	487
4	1	1	1	1	487
5	1	1	1	1	486
6	1	1	1	1	483
7	1	1	1	1	483
8	1	1	1	1	483
9	1	1	1	1	483
10	1	1	1	1	480
11	1	1	1	1	487
12	1	1	1	1	487
13	1	1	1	1	487
14	1	1	1	1	487
15	1	1	1	1	483
0	1	1	1	1	483
1	1	1	1	1	481
2	1	1	1	1	476
3	1	1	1	1	480
4	1	1	1	1	487
5	1	1	1	1	486
6	1	1	1	1	487
7	1	1	1	1	487
8	1	1	1	1	487
9	1	1	1	1	487
10	1	1	1	1	486
11	1	1	1	1	483
12	1	1	1	1	483
13	1	1	1	1	481
14	1	1	1	1	483
15	1	1	1	1	483
0	1	1	1	1	483
1	1	1	1	1	483
2	1	1	1	1	483
3	1	1	1	1	486
4	1	1	1	1	487
5	1	1	1	1	487
6	1	1	1	1	486
7	1	1	1	1	486
8	1	1	1	1	483
9	1	1	1	1	483
10	1	1	1	1	483
11	1	1	1	1	481
12	1	1	1	1	481
13	1	1	1	1	480
14	1	1	1	1	481
15	1	1	1	1	480
0	1	1	1	1	480
1	1	1	1	1	480
2	1	1	1	1	480
3	1	1	1	1	480
4	1	1	1	1	480
5	1	1	1	1	481
6	1	1	1	1	483
7	1	1	1	1	486
8	1	1	1	1	483
9	1	1	1	1	483
10	1	1	1	1	483
11	1	1	1	1	487
12	1	1	1	1	480
13	1	1	1	1	478
14	1	1	1	1	480
15	1	1	1	1	483
0	1	1	1	1	487
1	1	1	1	1	483
2	1	1	1	1	476
3	1	1	1	1	480
4	1	1	1	1	483
5	1	1	1	1	483
6	1	1	1	1	483
7	1	1	1	1	481
8	1	1	1	1	481
9	1	1	1	1	483
10	1	1	1	1	486
11	1	1	1	1	486
12	1	1	1	1	483
13	1	1	1	1	487
14	1	1	1	1	486
15	1	1	1	1	487
0	1	1	1	1	487
1	1	1	1	1	487
2	1	1	1	1	487
3	1	1	1	1	487
4	1	1	1	1	487
5	1	1	1	1	487
6	1	1	1	1	486
7	1	1	1	1	487
8	1	1	1	1	487
9	1	1	1	1	486
10	1	1	1	1	486
11	1	1	1	1	483
12	1	1	1	1	480
13	1	1	1	1	473
14	1	1	1	1	476
15	1	1	1	1	480
0	1	1	1	1	481
1	1	1	1	1	483
2	1	1	1	1	486
3	1	1	1	1	487
4	1	1	1	1	494
5	1	1	1	1	494
6	1	1	1	1	492
7	1	1	1	1	494
8	1	1	1	1	494
9	1	1	1	1	492
10	1	1	1	1	492
11	1	1	1	1	487
12	1	1	1	1	487
13	1	1	1	1	487
14	1	1	1	1	487
15	1	1	1	1	487
0	1	1	1	1	487
1	1	1	1	1	487
2	1	1	1	1	489
3	1	1	1	1	492
4	1	1	1	1	492
5	1	1	1	1	492
6	1	1	1	1	487
7	1	1	1	1	487
8	1	1	1	1	487
9	1	1	1	1	487
10	1	1	1	1	487
11	1	1	1	1	487
12	1	1	1	1	487
13	1	1	1	1	487
14	1	1	1	1	487
15	1	1	1	1	487
0	1	1	1	1	487
1	1	1	1	1	487
2	1	1	1	1	487
3	1	1	1	1	487
4	1	1	1	1	487
5	1	1	1	1	491
6	1	1	1	1	487
7	1	1	1	1	492
8	1	1	1	1	492
9	1	1	1	1	492
10	1	1	1	1	489
11	1	1	1	1	487
12	1	1	1	1	492
13	1	1	1	1	487
14	1	1	1	1	487
15	1	1	1	1	494
0	1	1	1	1	492
1	1	1	1	1	487
2	1	1	1	1	492
3	1	1	1	1	492
4	1	1	1	1	492
5	1	1	1	1	492
6	1	1	1	1	489
7	1	1	1	1	487
8	1	1	1	1	492
9	1	1	1	1	492
10	1	1	1	1	492
11	1	1	1	1	496
12	1	1	1	1	496
13	1	1	1	1	494
14	1	1	1	1	492
15	1	1	1	1	494
0	1	1	1	1	494
1	1	1	1	1	492
2	1	1	1	1	492
3	1	1	1	1	492
4	1	1	1	1	491
5	1	1	1	1	492
6	1	1	1	1	492
7	1	1	1	1	489
8	1	1	1	1	489
9	1	1	1	1	487
10	1	1	1	1	487
11	1	1	1	1	492
12	1	1	1	1	487
13	1	1	1	1	492
14	1	1	1	1	492
15	1	1	1	1	496
0	1	1	1	1	494
1	1	1	1	1	494
2	1	1	1	1	496
3	1	1	1	1	496
4	1	1	1	1	496
5	1	1	1	1	492
6	1	1	1	1	487
7	1	1	1	1	487
8	1	1	1	1	489
9	1	1	1	1	487
10	1	1	1	1	487
11	1	1	1	1	487
12	1	1	1	1	487
13	1	1	1	1	492
14	1	1	1	1	496
15	1	1	1	1	496
0	1	1	1	1	496
1	1	1	1	1	496
2	1	1	1	1	496
3	1	1	1	1	487
4	1	1	1	1	480
5	1	1	1	1	486
6	1	1	1	1	487
7	1	1	1	1	487
8	1	1	1	1	487
9	1	1	1	1	487
10	1	1	1	1	487
11	1	1	1	1	487
12	1	1	1	1	487
13	1	1	1	1	487
14	1	1	1	1	487
15	1	1	1	1	486
0	1	1	1	1	486
1	1	1	1	1	483
2	1	1	1	1	487
3	1	1	1	1	487
4	1	1	1	1	492
5	1	1	1	1	492
6	1	1	1	1	492
7	1	1	1	1	492
8	1	1	1	1	492
9	1	1	1	1	496
10	1	1	1	1	496
11	1	1	1	1	496
12	1	1	1	1	496
13	1	1	1	1	496
14	1	1	1	1	496
15	1	1	1	1	496
0	1	1	1	1	494
1	1	1	1	1	492
2	1	1	1	1	489
3	1	1	1	1	489
4	1	1	1	1	492
5	1	1	1	1	492
6	1	1	1	1	492
7	1	1	1	1	487
8	1	1	1	1	492
9	1	1	1	1	492
10	1	1	1	1	487
11	1	1	1	1	487
12	1	1	1	1	492
13	1	1	1	1	492
14	1	1	1	1	489
15	1	1	1	1	489
0	1	1	1	1	492
1	1	1	1	1	496
2	1	1	1	1	499
3	1	1	1	1	502
4	1	1	1	1	504
5	1	1	1	1	499
6	1	1	1	1	497
7	1	1	1	1	496
8	1	1	1	1	487
9	1	1	1	1	486
10	1	1	1	1	483
11	1	1	1	1	487
12	1	1	1	1	492
13	1	1	1	1	494
14	1	1	1	1	496
15	1	1	1	1	496
0	1	1	1	1	496
1	1	1	1	1	494
2	1	1	1	1	487
3	1	1	1	1	480
4	1	1	1	1	486
5	1	1	1	1	486
6	1	1	1	1	487
7	1	1	1	1	487
8	1	1	1	1	489
9	1	1	1	1	487
10	1	1	1	1	487
11	1	1	1	1	487
12	1	1	1	1	487
13	1	1	1	1	487
14	1	1	1	1	489
15	1	1	1	1	492
0	1	1	1	1	492
1	1	1	1	1	494
2	1	1	1	1	494
3	1	1	1	1	496
4	1	1	1	1	496
5	1	1	1	1	494
6	1	1	1	1	492
7	1	1	1	1	492
8	1	1	1	1	492
9	1	1	1	1	487
10	1	1	1	1	489
11	1	1	1	1	487
12	1	1	1	1	487
13	1	1	1	1	487
14	1	1	1	1	487
15	1	1	1	1	487
0	1	1	1	1	492
1	1	1	1	1	492
2	1	1	1	1	492
3	1	1	1	1	491
4	1	1	1	1	492
5	1	1	1	1	496
6	1	1	1	1	492
7	1	1	1	1	492
8	1	1	1	1	494
9	1	1	1	1	495
10	1	1	1	1	494
11	1	1	1	1	492
12	1	1	1	1	492
13	1	1	1	1	492
14	1	1	1	1	492
15	1	1	1	1	492
0	1	1	1	1	492
1	1	1	1	1	489
2	1	1	1	1	487
3	1	1	1	1	487
4	1	1	1	1	487
5	1	1	1	1	487
6	1	1	1	1	487
7	1	1	1	1	487
8	1	1	1	1	487
9	1	1	1	1	486
10	1	1	1	1	487
11	1	1	1	1	487
12	1	1	1	1	492
13	1	1	1	1	494
14	1	1	1	1	494
15	1	1	1	1	496
0	1	1	1	1	497
1	1	1	1	1	497
2	1	1	1	1	499
3	1	1	1	1	499
4	1	1	1	1	497
5	1	1	1	1	496
6	1	1	1	1	494
7	1	1	1	1	492
8	1	1	1	1	492
9	1	1	1	1	487
10	1	1	1	1	486
11	1	1	1	1	487
12	1	1	1	1	492
13	1	1	1	1	492
14	1	1	1	1	492
15	1	1	1	1	496
0	1	1	1	1	496
1	1	1	1	1	497
2	1	1	1	1	496
3	1	1	1	1	496
4	1	1	1	1	496
5	1	1	1	1	496
6	1	1	1	1	494
7	1	1	1	1	494
8	1	1	1	1	494
9	1	1	1	1	494
10	1	1	1	1	492
11	1	1	1	1	492
12	1	1	1	1	492
13	1	1	1	1	492
14	1	1	1	1	492
15	1	1	1	1	496
0	1	1	1	1	496
1	1	1	1	1	497
2	1	1	1	1	499
3	1	1	1	1	497
4	1	1	1	1	496
5	1	1	1	1	492
6	1	1	1	1	483
7	1	1	1	1	483
8	1	1	1	1	487
9	1	1	1	1	487
10	1	1	1	1	487
11	1	1	1	1	492
12	1	1	1	1	492
13	1	1	1	1	492
14	1	1	1	1	494
15	1	1	1	1	496
0	1	1	1	1	496
1	1	1	1	1	494
2	1	1	1	1	496
3	1	1	1	1	496
4	1	1	1	1	496
5	1	1	1	1	496
6	1	1	1	1	496
7	1	1	1	1	496
8	1	1	1	1	496
9	1	1	1	1	496
10	1	1	1	1	494
11	1	1	1	1	494
12	1	1	1	1	494
13	1	1	1	1	496
14	1	1	1	1	492
15	1	1	1	1	492
0	1	1	1	1	492
1	1	1	1	1	492
2	1	1	1	1	492
3	1	1	1	1	492
4	1	1	1	1	492
5	1	1	1	1	492
6	1	1	1	1	492
7	1	1	1	1	492
8	1	1	1	1	492
9	1	1	1	1	492
10	1	1	1	1	492
11	1	1	1	1	492
12	1	1	1	1	492
13	1	1	1	1	494
14	1	1	1	1	496
15	1	1	1	1	496
0	1	1	1	1	494
1	1	1	1	1	492
2	1	1	1	1	496
3	1	1	1	1	497
4	1	1	1	1	499
5	1	1	1	1	496
6	1	1	1	1	492
7	1	1	1	1	492
8	1	1	1	1	492
9	1	1	1	1	491
10	1	1	1	1	492
11	1	1	1	1	492
12	1	1	1	1	492
13	1	1	1	1	492
14	1	1	1	1	492
15	1	1	1	1	492
0	1	1	1	1	492
1	1	1	1	1	492
2	1	1	1	1	492
3	1	1	1	1	492
4	1	1	1	1	494
5	1	1	1	1	494
6	1	1	1	1	492
7	1	1	1	1	494
8	1	1	1	1	492
9	1	1	1	1	492
10	1	1	1	1	492
11	1	1	1	1	489
12	1	1	1	1	494
13	1	1	1	1	496
14	1	1	1	1	497
15	1	1	1	1	496
0	1	1	1	1	492
1	1	1	1	1	494
2	1	1	1	1	496
3	1	1	1	1	496
4	1	1	1	1	494
5	1	1	1	1	496
6	1	1	1	1	496
7	1	1	1	1	492
8	1	1	1	1	487
9	1	1	1	1	483
10	1	1	1	1	492
11	1	1	1	1	494
12	1	1	1	1	492
13	1	1	1	1	494
14	1	1	1	1	495
15	1	1	1	1	496
0	1	1	1	1	494
1	1	1	1	1	492
2	1	1	1	1	494
3	1	1	1	1	496
4	1	1	1	1	496
5	1	1	1	1	496
6	1	1	1	1	496
7	1	1	1	1	496
8	1	1	1	1	496
9	1	1	1	1	487
10	1	1	1	1	487
11	1	1	1	1	492
12	1	1	1	1	494
13	1	1	1	1	494
14	1	1	1	1	492
15	1	1	1	1	492
0	1	1	1	1	492
1	1	1	1	1	489
2	1	1	1	1	487
3	1	1	1	1	487
4	1	1	1	1	487
5	1	1	1	1	487
6	1	1	1	1	487
7	1	1	1	1	487
8	1	1	1	1	487
9	1	1	1	1	492
10	1	1	1	1	492
11	1	1	1	1	496
12	1	1	1	1	497
13	1	1	1	1	497
14	1	1	1	1	496
15	1	1	1	1	494
0	1	1	1	1	494
1	1	1	1	1	494
2	1	1	1	1	487
3	1	1	1	1	487
4	1	1	1	1	487
5	1	1	1	1	487
6	1	1	1	1	487
7	1	1	1	1	487
8	1	1	1	1	489
9	1	1	1	1	492
10	1	1	1	1	492
11	1	1	1	1	492
12	1	1	1	1	492
13	1	1	1	1	495
14	1	1	1	1	496
15	1	1	1	1	496
0	1	1	1	1	496
1	1	1	1	1	492
2	1	1	1	1	492
3	1	1	1	1	489
4	1	1	1	1	489
5	1	1	1	1	487
6	1	1	1	1	483
7	1	1	1	1	483
8	1	1	1	1	487
9	1	1	1	1	487
10	1	1	1	1	487
11	1	1	1	1	492
12	1	1	1	1	494
13	1	1	1	1	492
14	1	1	1	1	492
15	1	1	1	1	494
0	1	1	1	1	494
1	1	1	1	1	496
2	1	1	1	1	496
3	1	1	1	1	494
4	1	1	1	1	494
5	1	1	1	1	499
6	1	1	1	1	499
7	1	1	1	1	496
8	1	1	1	1	494
9	1	1	1	1	487
10	1	1	1	1	487
11	1	1	1	1	483
12	1	1	1	1	473
13	1	1	1	1	480
14	1	1	1	1	483
15	1	1	1	1	483
0	1	1	1	1	483
1	1	1	1	1	483
2	1	1	1	1	483
3	1	1	1	1	483
4	1	1	1	1	486
5	1	1	1	1	486
6	1	1	1	1	487
7	1	1	1	1	487
8	1	1	1	1	487
9	1	1	1	1	492
10	1	1	1	1	487
11	1	1	1	1	489
12	1	1	1	1	491
13	1	1	1	1	487
14	1	1	1	1	486
15	1	1	1	1	483
0	1	1	1	1	483
1	1	1	1	1	483
2	1	1	1	1	486
3	1	1	1	1	486
4	1	1	1	1	483
5	1	1	1	1	487
6	1	1	1	1	492
7	1	1	1	1	492
8	1	1	1	1	494
9	1	1	1	1	496
10	1	1	1	1	494
11	1	1	1	1	496
12	1	1	1	1	496
13	1	1	1	1	496
14	1	1	1	1	496
15	1	1	1	1	492
0	1	1	1	1	492
1	1	1	1	1	489
2	1	1	1	1	489
3	1	1	1	1	487
4	1	1	1	1	483
5	1	1	1	1	480
6	1	1	1	1	483
7	1	1	1	1	489
8	1	1	1	1	492
9	1	1	1	1	487
10	1	1	1	1	487
11	1	1	1	1	492
12	1	1	1	1	492
13	1	1	1	1	487
14	1	1	1	1	487
15	1	1	1	1	492
0	1	1	1	1	492
1	1	1	1	1	494
2	1	1	1	1	494
3	1	1	1	1	494
4	1	1	1	1	496
5	1	1	1	1	492
6	1	1	1	1	487
7	1	1	1	1	489
8	1	1	1	1	487
9	1	1	1	1	487
10	1	1	1	1	487
11	1	1	1	1	487
12	1	1	1	1	487
13	1	1	1	1	487
14	1	1	1	1	487
15	1	1	1	1	487
0	1	1	1	1	494
1	1	1	1	1	495
2	1	1	1	1	496
3	1	1	1	1	497
4	1	1	1	1	497
5	1	1	1	1	496
6	1	1	1	1	483
7	1	1	1	1	480
8	1	1	1	1	481
9	1	1	1	1	476
10	1	1	1	1	472
11	1	1	1	1	478
12	1	1	1	1	480
13	1	1	1	1	486
14	1	1	1	1	487
15	1	1	1	1	492
0	1	1	1	1	492
1	1	1	1	1	494
2	1	1	1	1	496
3	1	1	1	1	496
4	1	1	1	1	497
5	1	1	1	1	496
6	1	1	1	1	495
7	1	1	1	1	494
8	1	1	1	1	487
9	1	1	1	1	487
10	1	1	1	1	489
11	1	1	1	1	492
12	1	1	1	1	489
13	1	1	1	1	489
14	1	1	1	1	487
15	1	1	1	1	487
0	1	1	1	1	487
1	1	1	1	1	487
2	1	1	1	1	487
3	1	1	1	1	487
4	1	1	1	1	487
5	1	1	1	1	487
6	1	1	1	1	487
7	1	1	1	1	487
8	1	1	1	1	489
9	1	1	1	1	492
10	1	1	1	1	492
11	1	1	1	1	492
12	1	1	1	1	492
13	1	1	1	1	492
14	1	1	1	1	487
15	1	1	1	1	487
0	1	1	1	1	487
1	1	1	1	1	487
2	1	1	1	1	487
3	1	1	1	1	487
4	1	1	1	1	487
5	1	1	1	1	487
6	1	1	1	1	487
7	1	1	1	1	487
8	1	1	1	1	487
9	1	1	1	1	487
10	1	1	1	1	487
11	1	1	1	1	492
12	1	1	1	1	494
13	1	1	1	1	494
14	1	1	1	1	495
15	1	1	1	1	496
0	1	1	1	1	496
1	1	1	1	1	494
2	1	1	1	1	494
3	1	1	1	1	494
4	1	1	1	1	494
5	1	1	1	1	491
6	1	1	1	1	487
7	1	1	1	1	487
8	1	1	1	1	487
9	1	1	1	1	487
10	1	1	1	1	487
11	1	1	1	1	487
12	1	1	1	1	483
13	1	1	1	1	486
14	1	1	1	1	492
15	1	1	1	1	496
0	1	1	1	1	496
1	1	1	1	1	504
2	1	1	1	1	504
3	1	1	1	1	508
4	1	1	1	1	504
5	1	1	1	1	497
6	1	1	1	1	499
7	1	1	1	1	496
8	1	1	1	1	486
9	1	1	1	1	476
10	1	1	1	1	480
11	1	1	1	1	481
12	1	1	1	1	486
13	1	1	1	1	487
14	1	1	1	1	487
15	1	1	1	1	487
0	1	1	1	1	487
1	1	1	1	1	487
2	1	1	1	1	487
3	1	1	1	1	487
4	1	1	1	1	487
5	1	1	1	1	487
6	1	1	1	1	487
7	1	1	1	1	487
8	1	1	1	1	489
9	1	1	1	1	492
10	1	1	1	1	494
11	1	1	1	1	496
12	1	1	1	1	496
13	1	1	1	1	492
14	1	1	1	1	487
15	1	1	1	1	492
0	1	1	1	1	494
1	1	1	1	1	494
2	1	1	1	1	492
3	1	1	1	1	492
4	1	1	1	1	492
5	1	1	1	1	487
6	1	1	1	1	489
7	1	1	1	1	487
8	1	1	1	1	487
9	1	1	1	1	492
10	1	1	1	1	492
11	1	1	1	1	494
12	1	1	1	1	496
13	1	1	1	1	496
14	1	1	1	1	494
15	1	1	1	1	494
0	1	1	1	1	492
1	1	1	1	1	492
2	1	1	1	1	492
3	1	1	1	1	492
4	1	1	1	1	492
5	1	1	1	1	492
6	1	1	1	1	492
7	1	1	1	1	489
8	1	1	1	1	487
9	1	1	1	1	487
10	1	1	1	1	492
11	1	1	1	1	489
12	1	1	1	1	487
13	1	1	1	1	492
14	1	1	1	1	492
15	1	1	1	1	487
0	1	1	1	1	487
1	1	1	1	1	487
2	1	1	1	1	492
3	1	1	1	1	492
4	1	1	1	1	492
5	1	1	1	1	492
6	1	1	1	1	492
7	1	1	1	1	492
8	1	1	1	1	492
9	1	1	1	1	492
10	1	1	1	1	487
11	1	1	1	1	487
12	1	1	1	1	487
13	1	1	1	1	487
14	1	1	1	1	487
15	1	1	1	1	489
0	1	1	1	1	494
1	1	1	1	1	496
2	1	1	1	1	499
3	1	1	1	1	502
4	1	1	1	1	504
5	1	1	1	1	499
6	1	1	1	1	499
7	1	1	1	1	496
8	1	1	1	1	489
9	1	1	1	1	480
10	1	1	1	1	486
11	1	1	1	1	487
12	1	1	1	1	487
13	1	1	1	1	486
14	1	1	1	1	483
15	1	1	1	1	486
0	1	1	1	1	487
1	1	1	1	1	487
2	1	1	1	1	489
3	1	1	1	1	487
4	1	1	1	1	487
5	1	1	1	1	487
6	1	1	1	1	489
7	1	1	1	1	489
8	1	1	1	1	487
9	1	1	1	1	492
10	1	1	1	1	496
11	1	1	1	1	496
12	1	1	1	1	496
13	1	1	1	1	494
14	1	1	1	1	492
15	1	1	1	1	492
0	1	1	1	1	487
1	1	1	1	1	487
2	1	1	1	1	487
3	1	1	1	1	487
4	1	1	1	1	492
5	1	1	1	1	496
6	1	1	1	1	494
7	1	1	1	1	494
8	1	1	1	1	492
9	1	1	1	1	492
10	1	1	1	1	487
11	1	1	1	1	487
12	1	1	1	1	481
13	1	1	1	1	487
14	1	1	1	1	496
15	1	1	1	1	496
0	1	1	1	1	496
1	1	1	1	1	496
2	1	1	1	1	496
3	1	1	1	1	494
4	1	1	1	1	492
5	1	1	1	1	492
6	1	1	1	1	492
7	1	1	1	1	492
8	1	1	1	1	492
9	1	1	1	1	487
10	1	1	1	1	487
11	1	1	1	1	487
12	1	1	1	1	487
13	1	1	1	1	487
14	1	1	1	1	487
15	1	1	1	1	487
0	1	1	1	1	487
1	1	1	1	1	491
2	1	1	1	1	494
3	1	1	1	1	496
4	1	1	1	1	496
5	1	1	1	1	496
6	1	1	1	1	495
7	1	1	1	1	496
8	1	1	1	1	495
9	1	1	1	1	487
10	1	1	1	1	492
11	1	1	1	1	492
12	1	1	1	1	487
13	1	1	1	1	487
14	1	1	1	1	487
15	1	1	1	1	487
0	1	1	1	1	487
1	1	1	1	1	487
2	1	1	1	1	492
3	1	1	1	1	495
4	1	1	1	1	496
5	1	1	1	1	494
6	1	1	1	1	495
7	1	1	1	1	494
8	1	1	1	1	492
9	1	1	1	1	483
10	1	1	1	1	480
11	1	1	1	1	487
12	1	1	1	1	487
13	1	1	1	1	487
14	1	1	1	1	487
15	1	1	1	1	487
0	1	1	1	1	487
1	1	1	1	1	487
2	1	1	1	1	487
3	1	1	1	1	487
4	1	1	1	1	492
5	1	1	1	1	495
6	1	1	1	1	496
7	1	1	1	1	496
8	1	1	1	1	497
9	1	1	1	1	497
10	1	1	1	1	496
11	1	1	1	1	496
12	1	1	1	1	496
13	1	1	1	1	496
14	1	1	1	1	496
15	1	1	1	1	496
0	1	1	1	1	496
1	1	1	1	1	494
2	1	1	1	1	492
3	1	1	1	1	492
4	1	1	1	1	492
5	1	1	1	1	496
6	1	1	1	1	496
7	1	1	1	1	496
8	1	1	1	1	494
9	1	1	1	1	494
10	1	1	1	1	492
11	1	1	1	1	487
12	1	1	1	1	487
13	1	1	1	1	487
14	1	1	1	1	492
15	1	1	1	1	492
0	1	1	1	1	492
1	1	1	1	1	492
2	1	1	1	1	494
3	1	1	1	1	494
4	1	1	1	1	494
5	1	1	1	1	494
6	1	1	1	1	489
7	1	1	1	1	492
8	1	1	1	1	492
9	1	1	1	1	487
10	1	1	1	1	487
11	1	1	1	1	489
12	1	1	1	1	492
13	1	1	1	1	492
14	1	1	1	1	492
15	1	1	1	1	494
0	1	1	1	1	492
1	1	1	1	1	489
2	1	1	1	1	487
3	1	1	1	1	487
4	1	1	1	1	487
5	1	1	1	1	487
6	1	1	1	1	487
7	1	1	1	1	487
8	1	1	1	1	489
9	1	1	1	1	489
10	1	1	1	1	489
11	1	1	1	1	492
12	1	1	1	1	496
13	1	1	1	1	496
14	1	1	1	1	496
15	1	1	1	1	494
0	1	1	1	1	494
1	1	1	1	1	494
2	1	1	1	1	492
3	1	1	1	1	492
4	1	1	1	1	487
5	1	1	1	1	487
6	1	1	1	1	487
7	1	1	1	1	486
8	1	1	1	1	483
9	1	1	1	1	486
10	1	1	1	1	486
11	1	1	1	1	487
12	1	1	1	1	487
13	1	1	1	1	492
14	1	1	1	1	496
15	1	1	1	1	494
0	1	1	1	1	487
1	1	1	1	1	480
2	1	1	1	1	480
3	1	1	1	1	487
4	1	1	1	1	483
5	1	1	1	1	483
6	1	1	1	1	494
7	1	1	1	1	496
8	1	1	1	1	496
9	1	1	1	1	496
10	1	1	1	1	489
11	1	1	1	1	487
12	1	1	1	1	487
13	1	1	1	1	487
14	1	1	1	1	487
15	1	1	1	1	487
0	1	1	1	1	487
1	1	1	1	1	487
2	1	1	1	1	487
3	1	1	1	1	487
4	1	1	1	1	483
5	1	1	1	1	483
6	1	1	1	1	483
7	1	1	1	1	483
8	1	1	1	1	483
9	1	1	1	1	487
10	1	1	1	1	487
11	1	1	1	1	492
12	1	1	1	1	496
13	1	1	1	1	496
14	1	1	1	1	496
15	1	1	1	1	496
0	1	1	1	1	496
1	1	1	1	1	492
2	1	1	1	1	487
3	1	1	1	1	487
4	1	1	1	1	487
5	1	1	1	1	489
6	1	1	1	1	489
7	1	1	1	1	487
8	1	1	1	1	487
9	1	1	1	1	487
10	1	1	1	1	492
11	1	1	1	1	492
12	1	1	1	1	492
13	1	1	1	1	492
14	1	1	1	1	492
15	1	1	1	1	492
0	1	1	1	1	492
1	1	1	1	1	492
2	1	1	1	1	494
3	1	1	1	1	494
4	1	1	1	1	494
5	1	1	1	1	492
6	1	1	1	1	492
7	1	1	1	1	494
8	1	1	1	1	492
9	1	1	1	1	492
10	1	1	1	1	487
11	1	1	1	1	489
12	1	1	1	1	492
13	1	1	1	1	492
14	1	1	1	1	494
15	1	1	1	1	494
0	1	1	1	1	496
1	1	1	1	1	496
2	1	1	1	1	497
3	1	1	1	1	499
4	1	1	1	1	504
5	1	1	1	1	499
6	1	1	1	1	499
7	1	1	1	1	499
8	1	1	1	1	497
9	1	1	1	1	496
10	1	1	1	1	492
11	1	1	1	1	487
12	1	1	1	1	487
13	1	1	1	1	492
14	1	1	1	1	489
15	1	1	1	1	492
0	1	1	1	1	492
1	1	1	1	1	492
2	1	1	1	1	494
3	1	1	1	1	496
4	1	1	1	1	496
5	1	1	1	1	496
6	1	1	1	1	499
7	1	1	1	1	504
8	1	1	1	1	504
9	1	1	1	1	504
10	1	1	1	1	504
11	1	1	1	1	504
12	1	1	1	1	499
13	1	1	1	1	487
14	1	1	1	1	492
15	1	1	1	1	496
0	1	1	1	1	496
1	1	1	1	1	487
2	1	1	1	1	487
3	1	1	1	1	487
4	1	1	1	1	487
5	1	1	1	1	487
6	1	1	1	1	492
7	1	1	1	1	494
8	1	1	1	1	492
9	1	1	1	1	495
10	1	1	1	1	496
11	1	1	1	1	497
12	1	1	1	1	497
13	1	1	1	1	496
14	1	1	1	1	496
15	1	1	1	1	499
0	1	1	1	1	497
1	1	1	1	1	497
2	1	1	1	1	496
3	1	1	1	1	496
4	1	1	1	1	496
5	1	1	1	1	496
6	1	1	1	1	496
7	1	1	1	1	494
8	1	1	1	1	494
9	1	1	1	1	496
10	1	1	1	1	497
11	1	1	1	1	497
12	1	1	1	1	499
13	1	1	1	1	504
14	1	1	1	1	504
15	1	1	1	1	504
0	1	1	1	1	499
1	1	1	1	1	497
2	1	1	1	1	499
3	1	1	1	1	496
4	1	1	1	1	492
5	1	1	1	1	495
6	1	1	1	1	496
7	1	1	1	1	496
8	1	1	1	1	496
9	1	1	1	1	496
10	1	1	1	1	496
11	1	1	1	1	496
12	1	1	1	1	496
13	1	1	1	1	496
14	1	1	1	1	496
15	1	1	1	1	496
0	1	1	1	1	496
1	1	1	1	1	496
2	1	1	1	1	496
3	1	1	1	1	497
4	1	1	1	1	496
5	1	1	1	1	497
6	1	1	1	1	496
7	1	1	1	1	496
8	1	1	1	1	496
9	1	1	1	1	496
10	1	1	1	1	496
11	1	1	1	1	497
12	1	1	1	1	497
13	1	1	1	1	496
14	1	1	1	1	496
15	1	1	1	1	496
0	1	1	1	1	494
1	1	1	1	1	487
2	1	1	1	1	492
3	1	1	1	1	496
4	1	1	1	1	496
5	1	1	1	1	497
6	1	1	1	1	499
7	1	1	1	1	504
8	1	1	1	1	504
9	1	1	1	1	504
10	1	1	1	1	504
11	1	1	1	1	504
12	1	1	1	1	504
13	1	1	1	1	504
14	1	1	1	1	499
15	1	1	1	1	494
0	1	1	1	1	483
1	1	1	1	1	483
2	1	1	1	1	487
3	1	1	1	1	487
4	1	1	1	1	492
5	1	1	1	1	492
6	1	1	1	1	494
7	1	1	1	1	496
8	1	1	1	1	499
9	1	1	1	1	499
10	1	1	1	1	499
11	1	1	1	1	504
12	1	1	1	1	504
13	1	1	1	1	504
14	1	1	1	1	504
15	1	1	1	1	504
0	1	1	1	1	497
1	1	1	1	1	496
2	1	1	1	1	496
3	1	1	1	1	496
4	1	1	1	1	496
5	1	1	1	1	495
6	1	1	1	1	496
7	1	1	1	1	494
8	1	1	1	1	495
9	1	1	1	1	496
10	1	1	1	1	496
11	1	1	1	1	496
12	1	1	1	1	496
13	1	1	1	1	495
14	1	1	1	1	496
15	1	1	1	1	496
0	1	1	1	1	496
1	1	1	1	1	496
2	1	1	1	1	497
3	1	1	1	1	499
4	1	1	1	1	499
5	1	1	1	1	499
6	1	1	1	1	499
7	1	1	1	1	499
8	1	1	1	1	497
9	1	1	1	1	494
10	1	1	1	1	492
11	1	1	1	1	494
12	1	1	1	1	494
13	1	1	1	1	494
14	1	1	1	1	494
15	1	1	1	1	492
0	1	1	1	1	492
1	1	1	1	1	492
2	1	1	1	1	497
3	1	1	1	1	497
4	1	1	1	1	497
5	1	1	1	1	496
6	1	1	1	1	499
7	1	1	1	1	504
8	1	1	1	1	499
9	1	1	1	1	499
10	1	1	1	1	499
11	1	1	1	1	497
12	1	1	1	1	494
13	1	1	1	1	487
14	1	1	1	1	492
15	1	1	1	1	492
0	1	1	1	1	494
1	1	1	1	1	495
2	1	1	1	1	496
3	1	1	1	1	496
4	1	1	1	1	496
5	1	1	1	1	496
6	1	1	1	1	496
7	1	1	1	1	497
8	1	1	1	1	496
9	1	1	1	1	496
10	1	1	1	1	497
11	1	1	1	1	497
12	1	1	1	1	496
13	1	1	1	1	496
14	1	1	1	1	496
15	1	1	1	1	496
0	1	1	1	1	496
1	1	1	1	1	496
2	1	1	1	1	496
3	1	1	1	1	496
4	1	1	1	1	496
5	1	1	1	1	499
6	1	1	1	1	502
7	1	1	1	1	499
8	1	1	1	1	504
9	1	1	1	1	499
10	1	1	1	1	496
11	1	1	1	1	492
12	1	1	1	1	487
13	1	1	1	1	492
14	1	1	1	1	496
15	1	1	1	1	496
0	1	1	1	1	496
1	1	1	1	1	497
2	1	1	1	1	499
3	1	1	1	1	504
4	1	1	1	1	499
5	1	1	1	1	496
6	1	1	1	1	496
7	1	1	1	1	496
8	1	1	1	1	496
9	1	1	1	1	494
10	1	1	1	1	494
11	1	1	1	1	494
12	1	1	1	1	494
13	1	1	1	1	494
14	1	1	1	1	496
15	1	1	1	1	496
0	1	1	1	1	499
1	1	1	1	1	499
2	1	1	1	1	499
3	1	1	1	1	504
4	1	1	1	1	504
5	1	1	1	1	504
6	1	1	1	1	502
7	1	1	1	1	499
8	1	1	1	1	497
9	1	1	1	1	496
10	1	1	1	1	497
11	1	1	1	1	497
12	1	1	1	1	499
13	1	1	1	1	499
14	1	1	1	1	499
15	1	1	1	1	497
0	1	1	1	1	499
1	1	1	1	1	504
2	1	1	1	1	504
3	1	1	1	1	504
4	1	1	1	1	504
5	1	1	1	1	502
6	1	1	1	1	499
7	1	1	1	1	499
8	1	1	1	1	494
9	1	1	1	1	494
10	1	1	1	1	504
11	1	1	1	1	504
12	1	1	1	1	504
13	1	1	1	1	502
14	1	1	1	1	504
15	1	1	1	1	499
0	1	1	1	1	495
1	1	1	1	1	487
2	1	1	1	1	492
3	1	1	1	1	496
4	1	1	1	1	494
5	1	1	1	1	496
6	1	1	1	1	492
7	1	1	1	1	494
8	1	1	1	1	496
9	1	1	1	1	496
10	1	1	1	1	497
11	1	1	1	1	496
12	1	1	1	1	496
13	1	1	1	1	496
14	1	1	1	1	496
15	1	1	1	1	496
0	1	1	1	1	496
1	1	1	1	1	496
2	1	1	1	1	496
3	1	1	1	1	496
4	1	1	1	1	496
5	1	1	1	1	496
6	1	1	1	1	496
7	1	1	1	1	496
8	1	1	1	1	504
9	1	1	1	1	504
10	1	1	1	1	504
11	1	1	1	1	504
12	1	1	1	1	504
13	1	1	1	1	497
14	1	1	1	1	487
15	1	1	1	1	487
0	1	1	1	1	494
1	1	1	1	1	496
2	1	1	1	1	497
3	1	1	1	1	496
4	1	1	1	1	499
5	1	1	1	1	496
6	1	1	1	1	496
7	1	1	1	1	497
8	1	1	1	1	496
9	1	1	1	1	496
10	1	1	1	1	496
11	1	1	1	1	495
12	1	1	1	1	496
13	1	1	1	1	496
14	1	1	1	1	496
15	1	1	1	1	499
0	1	1	1	1	499
1	1	1	1	1	504
2	1	1	1	1	508
3	1	1	1	1	508
4	1	1	1	1	508
5	1	1	1	1	504
6	1	1	1	1	497
7	1	1	1	1	499
8	1	1	1	1	497
9	1	1	1	1	499
10	1	1	1	1	497
11	1	1	1	1	497
12	1	1	1	1	497
13	1	1	1	1	496
14	1	1	1	1	497
15	1	1	1	1	497
0	1	1	1	1	497
1	1	1	1	1	499
2	1	1	1	1	499
3	1	1	1	1	499
4	1	1	1	1	499
5	1	1	1	1	497
6	1	1	1	1	499
7	1	1	1	1	499
8	1	1	1	1	499
9	1	1	1	1	499
10	1	1	1	1	497
11	1	1	1	1	496
12	1	1	1	1	496
13	1	1	1	1	496
14	1	1	1	1	496
15	1	1	1	1	496
0	1	1	1	1	496
1	1	1	1	1	496
2	1	1	1	1	496
3	1	1	1	1	496
4	1	1	1	1	496
5	1	1	1	1	499
6	1	1	1	1	497
7	1	1	1	1	496
8	1	1	1	1	497
9	1	1	1	1	496
10	1	1	1	1	496
11	1	1	1	1	496
12	1	1	1	1	496
13	1	1	1	1	497
14	1	1	1	1	502
15	1	1	1	1	504
0	1	1	1	1	504
1	1	1	1	1	502
2	1	1	1	1	499
3	1	1	1	1	499
4	1	1	1	1	497
5	1	1	1	1	496
6	1	1	1	1	492
7	1	1	1	1	492
8	1	1	1	1	496
9	1	1	1	1	496
10	1	1	1	1	499
11	1	1	1	1	499
12	1	1	1	1	499
13	1	1	1	1	499
14	1	1	1	1	496
15	1	1	1	1	496
0	1	1	1	1	499
1	1	1	1	1	504
2	1	1	1	1	499
3	1	1	1	1	497
4	1	1	1	1	496
5	1	1	1	1	496
6	1	1	1	1	496
7	1	1	1	1	496
8	1	1	1	1	496
9	1	1	1	1	496
10	1	1	1	1	504
11	1	1	1	1	504
12	1	1	1	1	505
13	1	1	1	1	504
14	1	1	1	1	504
15	1	1	1	1	499
0	1	1	1	1	491
1	1	1	1	1	483
2	1	1	1	1	487
3	1	1	1	1	492
4	1	1	1	1	494
5	1	1	1	1	494
6	1	1	1	1	492
7	1	1	1	1	492
8	1	1	1	1	487
9	1	1	1	1	487
10	1	1	1	1	492
11	1	1	1	1	492
12	1	1	1	1	492
13	1	1	1	1	492
14	1	1	1	1	494
15	1	1	1	1	497
0	1	1	1	1	496
1	1	1	1	1	499
2	1	1	1	1	504
3	1	1	1	1	502
4	1	1	1	1	502
5	1	1	1	1	502
6	1	1	1	1	496
7	1	1	1	1	496
8	1	1	1	1	496
9	1	1	1	1	496
10	1	1	1	1	496
11	1	1	1	1	499
12	1	1	1	1	499
13	1	1	1	1	499
14	1	1	1	1	497
15	1	1	1	1	496
0	1	1	1	1	496
1	1	1	1	1	496
2	1	1	1	1	487
3	1	1	1	1	486
4	1	1	1	1	492
5	1	1	1	1	494
6	1	1	1	1	496
7	1	1	1	1	496
8	1	1	1	1	496
9	1	1	1	1	496
10	1	1	1	1	496
11	1	1	1	1	496
12	1	1	1	1	496
13	1	1	1	1	496
14	1	1	1	1	496
15	1	1	1	1	496
0	1	1	1	1	496
1	1	1	1	1	496
2	1	1	1	1	494
3	1	1	1	1	494
4	1	1	1	1	492
5	1	1	1	1	494
6	1	1	1	1	496
7	1	1	1	1	496
8	1	1	1	1	496
9	1	1	1	1	497
10	1	1	1	1	499
11	1	1	1	1	499
12	1	1	1	1	496
13	1	1	1	1	492
14	1	1	1	1	487
15	1	1	1	1	492
0	1	1	1	1	492
1	1	1	1	1	494
2	1	1	1	1	494
3	1	1	1	1	492
4	1	1	1	1	494
5	1	1	1	1	495
6	1	1	1	1	496
7	1	1	1	1	496
8	1	1	1	1	496
9	1	1	1	1	496
10	1	1	1	1	496
11	1	1	1	1	496
12	1	1	1	1	496
13	1	1	1	1	496
14	1	1	1	1	496
15	1	1	1	1	496
0	1	1	1	1	496
1	1	1	1	1	496
2	1	1	1	1	496
3	1	1	1	1	496
4	1	1	1	1	499
5	1	1	1	1	499
6	1	1	1	1	497
7	1	1	1	1	497
8	1	1	1	1	496
9	1	1	1	1	496
10	1	1	1	1	496
11	1	1	1	1	496
12	1	1	1	1	496
13	1	1	1	1	499
14	1	1	1	1	499
15	1	1	1	1	499
0	1	1	1	1	499
1	1	1	1	1	497
2	1	1	1	1	494
3	1	1	1	1	483
4	1	1	1	1	481
5	1	1	1	1	487
6	1	1	1	1	492
7	1	1	1	1	494
8	1	1	1	1	496
9	1	1	1	1	496
10	1	1	1	1	494
11	1	1	1	1	494
12	1	1	1	1	494
13	1	1	1	1	492
14	1	1	1	1	492
15	1	1	1	1	492
0	1	1	1	1	492
1	1	1	1	1	492
2	1	1	1	1	494
3	1	1	1	1	496
4	1	1	1	1	496
5	1	1	1	1	499
6	1	1	1	1	504
7	1	1	1	1	499
8	1	1	1	1	497
9	1	1	1	1	496
10	1	1	1	1	496
11	1	1	1	1	496
12	1	1	1	1	496
13	1	1	1	1	496
14	1	1	1	1	496
15	1	1	1	1	496
0	1	1	1	1	496
1	1	1	1	1	496
2	1	1	1	1	496
3	1	1	1	1	496
4	1	1	1	1	492
5	1	1	1	1	487
6	1	1	1	1	487
7	1	1	1	1	492
8	1	1	1	1	492
9	1	1	1	1	494
10	1	1	1	1	496
11	1	1	1	1	496
12	1	1	1	1	499
13	1	1	1	1	497
14	1	1	1	1	499
15	1	1	1	1	499
0	1	1	1	1	499
1	1	1	1	1	497
2	1	1	1	1	496
3	1	1	1	1	494
4	1	1	1	1	494
5	1	1	1	1	496
6	1	1	1	1	494
7	1	1	1	1	492
8	1	1	1	1	492
9	1	1	1	1	492
10	1	1	1	1	492
11	1	1	1	1	492
12	1	1	1	1	492
13	1	1	1	1	492
14	1	1	1	1	496
15	1	1	1	1	496
0	1	1	1	1	497
1	1	1	1	1	497
2	1	1	1	1	497
3	1	1	1	1	499
4	1	1	1	1	499
5	1	1	1	1	499
6	1	1	1	1	496
7	1	1	1	1	496
8	1	1	1	1	496
9	1	1	1	1	492
10	1	1	1	1	487
11	1	1	1	1	487
12	1	1	1	1	487
13	1	1	1	1	492
14	1	1	1	1	492
15	1	1	1	1	492
0	1	1	1	1	494
1	1	1	1	1	496
2	1	1	1	1	494
3	1	1	1	1	496
4	1	1	1	1	496
5	1	1	1	1	496
6	1	1	1	1	496
7	1	1	1	1	497
8	1	1	1	1	496
9	1	1	1	1	496
10	1	1	1	1	497
11	1	1	1	1	496
12	1	1	1	1	492
13	1	1	1	1	492
14	1	1	1	1	494
15	1	1	1	1	492
0	1	1	1	1	492
1	1	1	1	1	492
2	1	1	1	1	494
3	1	1	1	1	492
4	1	1	1	1	492
5	1	1	1	1	496
6	1	1	1	1	494
7	1	1	1	1	489
8	1	1	1	1	483
9	1	1	1	1	487
10	1	1	1	1	494
11	1	1	1	1	496
12	1	1	1	1	496
13	1	1	1	1	496
14	1	1	1	1	499
15	1	1	1	1	499
0	1	1	1	1	497
1	1	1	1	1	496
2	1	1	1	1	492
3	1	1	1	1	492
4	1	1	1	1	494
5	1	1	1	1	487
6	1	1	1	1	492
7	1	1	1	1	496
8	1	1	1	1	496
9	1	1	1	1	494
10	1	1	1	1	494
11	1	1	1	1	496
12	1	1	1	1	496
13	1	1	1	1	496
14	1	1	1	1	496
15	1	1	1	1	494
0	1	1	1	1	492
1	1	1	1	1	494
2	1	1	1	1	492
3	1	1	1	1	492
4	1	1	1	1	494
5	1	1	1	1	494
6	1	1	1	1	492
7	1	1	1	1	492
8	1	1	1	1	496
9	1	1	1	1	496
10	1	1	1	1	496
11	1	1	1	1	496
12	1	1	1	1	496
13	1	1	1	1	496
14	1	1	1	1	496
15	1	1	1	1	497
0	1	1	1	1	499
1	1	1	1	1	499
2	1	1	1	1	497
3	1	1	1	1	497
4	1	1	1	1	497
5	1	1	1	1	496
6	1	1	1	1	492
7	1	1	1	1	492
8	1	1	1	1	494
9	1	1	1	1	494
10	1	1	1	1	494
11	1	1	1	1	492
12	1	1	1	1	492
13	1	1	1	1	494
14	1	1	1	1	496
15	1	1	1	1	496
0	1	1	1	1	496
1	1	1	1	1	496
2	1	1	1	1	496
3	1	1	1	1	496
4	1	1	1	1	496
5	1	1	1	1	499
6	1	1	1	1	499
7	1	1	1	1	497
8	1	1	1	1	496
9	1	1	1	1	492
10	1	1	1	1	489
11	1	1	1	1	492
12	1	1	1	1	489
13	1	1	1	1	492
14	1	1	1	1	496
15	1	1	1	1	494
0	1	1	1	1	494
1	1	1	1	1	494
2	1	1	1	1	496
3	1	1	1	1	496
4	1	1	1	1	497
5	1	1	1	1	497
6	1	1	1	1	496
7	1	1	1	1	496
8	1	1	1	1	499
9	1	1	1	1	504
10	1	1	1	1	504
11	1	1	1	1	504
12	1	1	1	1	504
13	1	1	1	1	504
14	1	1	1	1	499
15	1	1	1	1	494
0	1	1	1	1	486
1	1	1	1	1	489
2	1	1	1	1	494
3	1	1	1	1	494
4	1	1	1	1	494
5	1	1	1	1	494
6	1	1	1	1	492
7	1	1	1	1	494
8	1	1	1	1	496
9	1	1	1	1	496
10	1	1	1	1	496
11	1	1	1	1	496
12	1	1	1	1	496
13	1	1	1	1	496
14	1	1	1	1	496
15	1	1	1	1	499
0	1	1	1	1	499
1	1	1	1	1	497
2	1	1	1	1	496
3	1	1	1	1	492
4	1	1	1	1	492
5	1	1	1	1	487
6	1	1	1	1	487
7	1	1	1	1	487
8	1	1	1	1	492
9	1	1	1	1	496
10	1	1	1	1	499
11	1	1	1	1	504
12	1	1	1	1	504
13	1	1	1	1	504
14	1	1	1	1	504
15	1	1	1	1	504
0	1	1	1	1	496
1	1	1	1	1	496
2	1	1	1	1	496
3	1	1	1	1	496
4	1	1	1	1	495
5	1	1	1	1	494
6	1	1	1	1	494
7	1	1	1	1	496
8	1	1	1	1	497
9	1	1	1	1	496
10	1	1	1	1	496
11	1	1	1	1	496
12	1	1	1	1	496
13	1	1	1	1	496
14	1	1	1	1	496
15	1	1	1	1	496
0	1	1	1	1	496
1	1	1	1	1	497
2	1	1	1	1	497
3	1	1	1	1	496
4	1	1	1	1	496
5	1	1	1	1	496
6	1	1	1	1	496
7	1	1	1	1	496
8	1	1	1	1	497
9	1	1	1	1	496
10	1	1	1	1	496
11	1	1	1	1	494
12	1	1	1	1	492
13	1	1	1	1	494
14	1	1	1	1	494
15	1	1	1	1	496
0	1	1	1	1	496
1	1	1	1	1	499
2	1	1	1	1	499
3	1	1	1	1	499
4	1	1	1	1	497
5	1	1	1	1	494
6	1	1	1	1	486
7	1	1	1	1	487
8	1	1	1	1	494
9	1	1	1	1	497
10	1	1	1	1	499
11	1	1	1	1	497
12	1	1	1	1	497
13	1	1	1	1	497
14	1	1	1	1	494
15	1	1	1	1	487
0	1	1	1	1	486
1	1	1	1	1	492
2	1	1	1	1	494
3	1	1	1	1	494
4	1	1	1	1	492
5	1	1	1	1	492
6	1	1	1	1	492
7	1	1	1	1	492
8	1	1	1	1	492
9	1	1	1	1	494
10	1	1	1	1	494
11	1	1	1	1	494
12	1	1	1	1	496
13	1	1	1	1	496
14	1	1	1	1	497
15	1	1	1	1	497
0	1	1	1	1	499
1	1	1	1	1	497
2	1	1	1	1	497
3	1	1	1	1	496
4	1	1	1	1	496
5	1	1	1	1	496
6	1	1	1	1	496
7	1	1	1	1	495
8	1	1	1	1	496
9	1	1	1	1	496
10	1	1	1	1	496
11	1	1	1	1	496
12	1	1	1	1	496
13	1	1	1	1	496
14	1	1	1	1	496
15	1	1	1	1	496
0	1	1	1	1	496
1	1	1	1	1	496
2	1	1	1	1	499
3	1	1	1	1	499
4	1	1	1	1	499
5	1	1	1	1	497
6	1	1	1	1	496
7	1	1	1	1	495
8	1	1	1	1	494
9	1	1	1	1	492
10	1	1	1	1	494
11	1	1	1	1	494
12	1	1	1	1	492
13	1	1	1	1	492
14	1	1	1	1	496
15	1	1	1	1	496
0	1	1	1	1	496
1	1	1	1	1	496
2	1	1	1	1	496
3	1	1	1	1	496
4	1	1	1	1	497
5	1	1	1	1	499
6	1	1	1	1	497
7	1	1	1	1	499
8	1	1	1	1	499
9	1	1	1	1	499
10	1	1	1	1	499
11	1	1	1	1	496
12	1	1	1	1	496
13	1	1	1	1	496
14	1	1	1	1	494
15	1	1	1	1	494
0	1	1	1	1	494
1	1	1	1	1	496
2	1	1	1	1	494
3	1	1	1	1	496
4	1	1	1	1	499
5	1	1	1	1	502
6	1	1	1	1	504
7	1	1	1	1	497
8	1	1	1	1	497
9	1	1	1	1	499
10	1	1	1	1	499
11	1	1	1	1	499
12	1	1	1	1	499
13	1	1	1	1	497
14	1	1	1	1	499
15	1	1	1	1	504
0	1	1	1	1	497
1	1	1	1	1	495
2	1	1	1	1	494
3	1	1	1	1	496
4	1	1	1	1	492
5	1	1	1	1	486
6	1	1	1	1	487
7	1	1	1	1	492
8	1	1	1	1	492
9	1	1	1	1	492
10	1	1	1	1	495
11	1	1	1	1	496
12	1	1	1	1	496
13	1	1	1	1	497
14	1	1	1	1	497
15	1	1	1	1	497
0	1	1	1	1	499
1	1	1	1	1	499
2	1	1	1	1	497
3	1	1	1	1	499
4	1	1	1	1	496
5	1	1	1	1	497
6	1	1	1	1	497
7	1	1	1	1	497
8	1	1	1	1	497
9	1	1	1	1	497
10	1	1	1	1	499
11	1	1	1	1	499
12	1	1	1	1	496
13	1	1	1	1	496
14	1	1	1	1	497
15	1	1	1	1	504
0	1	1	1	1	499
1	1	1	1	1	497
2	1	1	1	1	496
3	1	1	1	1	494
4	1	1	1	1	494
5	1	1	1	1	487
6	1	1	1	1	487
7	1	1	1	1	492
8	1	1	1	1	492
9	1	1	1	1	496
10	1	1	1	1	504
11	1	1	1	1	504
12	1	1	1	1	504
13	1	1	1	1	497
14	1	1	1	1	496
15	1	1	1	1	496
0	1	1	1	1	496
1	1	1	1	1	496
2	1	1	1	1	496
3	1	1	1	1	496
4	1	1	1	1	497
5	1	1	1	1	499
6	1	1	1	1	499
7	1	1	1	1	499
8	1	1	1	1	497
9	1	1	1	1	496
10	1	1	1	1	496
11	1	1	1	1	496
12	1	1	1	1	496
13	1	1	1	1	496
14	1	1	1	1	496
15	1	1	1	1	497
0	1	1	1	1	496
1	1	1	1	1	499
2	1	1	1	1	499
3	1	1	1	1	497
4	1	1	1	1	497
5	1	1	1	1	497
6	1	1	1	1	499
7	1	1	1	1	499
8	1	1	1	1	497
9	1	1	1	1	496
10	1	1	1	1	499
11	1	1	1	1	504
12	1	1	1	1	505
13	1	1	1	1	508
14	1	1	1	1	504
15	1	1	1	1	504
0	1	1	1	1	499
1	1	1	1	1	496
2	1	1	1	1	487
3	1	1	1	1	492
4	1	1	1	1	499
5	1	1	1	1	499
6	1	1	1	1	497
7	1	1	1	1	497
8	1	1	1	1	499
9	1	1	1	1	504
10	1	1	1	1	505
11	1	1	1	1	508
12	1	1	1	1	508
13	1	1	1	1	508
14	1	1	1	1	504
15	1	1	1	1	499
0	1	1	1	1	492
1	1	1	1	1	476
2	1	1	1	1	480
3	1	1	1	1	487
4	1	1	1	1	487
5	1	1	1	1	487
6	1	1	1	1	489
7	1	1	1	1	494
8	1	1	1	1	496
9	1	1	1	1	496
10	1	1	1	1	496
11	1	1	1	1	496
12	1	1	1	1	497
13	1	1	1	1	499
14	1	1	1	1	499
15	1	1	1	1	499
0	1	1	1	1	504
1	1	1	1	1	505
2	1	1	1	1	504
3	1	1	1	1	504
4	1	1	1	1	499
5	1	1	1	1	499
6	1	1	1	1	497
7	1	1	1	1	497
8	1	1	1	1	497
9	1	1	1	1	496
10	1	1	1	1	496
11	1	1	1	1	496
12	1	1	1	1	496
13	1	1	1	1	496
14	1	1	1	1	496
15	1	1	1	1	496
0	1	1	1	1	496
1	1	1	1	1	496
2	1	1	1	1	496
3	1	1	1	1	497
4	1	1	1	1	499
5	1	1	1	1	499
6	1	1	1	1	499
7	1	1	1	1	499
8	1	1	1	1	499
9	1	1	1	1	499
10	1	1	1	1	497
11	1	1	1	1	496
12	1	1	1	1	496
13	1	1	1	1	496
14	1	1	1	1	496
15	1	1	1	1	497
0	1	1	1	1	497
1	1	1	1	1	497
2	1	1	1	1	497
3	1	1	1	1	499
4	1	1	1	1	497
5	1	1	1	1	496
6	1	1	1	1	492
7	1	1	1	1	496
8	1	1	1	1	496
9	1	1	1	1	496
10	1	1	1	1	496
11	1	1	1	1	496
12	1	1	1	1	496
13	1	1	1	1	496
14	1	1	1	1	496
15	1	1	1	1	496
0	1	1	1	1	496
1	1	1	1	1	496
2	1	1	1	1	494
3	1	1	1	1	489
4	1	1	1	1	487
5	1	1	1	1	487
6	1	1	1	1	492
7	1	1	1	1	492
8	1	1	1	1	492
9	1	1	1	1	495
10	1	1	1	1	497
11	1	1	1	1	504
12	1	1	1	1	505
13	1	1	1	1	505
14	1	1	1	1	504
15	1	1	1	1	504
0	1	1	1	1	497
1	1	1	1	1	496
2	1	1	1	1	496
3	1	1	1	1	496
4	1	1	1	1	494
5	1	1	1	1	496
6	1	1	1	1	494
7	1	1	1	1	494
8	1	1	1	1	496
9	1	1	1	1	497
10	1	1	1	1	496
11	1	1	1	1	496
12	1	1	1	1	496
13	1	1	1	1	496
14	1	1	1	1	496
15	1	1	1	1	497
0	1	1	1	1	499
1	1	1	1	1	496
2	1	1	1	1	496
3	1	1	1	1	496
4	1	1	1	1	497
5	1	1	1	1	497
6	1	1	1	1	499
7	1	1	1	1	504
8	1	1	1	1	508
9	1	1	1	1	508
10	1	1	1	1	505
11	1	1	1	1	504
12	1	1	1	1	499
13	1	1	1	1	494
14	1	1	1	1	481
15	1	1	1	1	483
0	1	1	1	1	492
1	1	1	1	1	494
2	1	1	1	1	496
3	1	1	1	1	496
4	1	1	1	1	496
5	1	1	1	1	496
6	1	1	1	1	496
7	1	1	1	1	496
8	1	1	1	1	496
9	1	1	1	1	496
10	1	1	1	1	496
11	1	1	1	1	496
12	1	1	1	1	496
13	1	1	1	1	496
14	1	1	1	1	496
15	1	1	1	1	494
0	1	1	1	1	492
1	1	1	1	1	494
2	1	1	1	1	496
3	1	1	1	1	496
4	1	1	1	1	496
5	1	1	1	1	496
6	1	1	1	1	499
7	1	1	1	1	496
8	1	1	1	1	496
9	1	1	1	1	502
10	1	1	1	1	502
11	1	1	1	1	496
12	1	1	1	1	496
13	1	1	1	1	496
14	1	1	1	1	494
15	1	1	1	1	492
0	1	1	1	1	494
1	1	1	1	1	496
2	1	1	1	1	496
3	1	1	1	1	496
4	1	1	1	1	497
5	1	1	1	1	496
6	1	1	1	1	494
7	1	1	1	1	494
8	1	1	1	1	494
9	1	1	1	1	494
10	1	1	1	1	496
11	1	1	1	1	497
12	1	1	1	1	499
13	1	1	1	1	499
14	1	1	1	1	502
15	1	1	1	1	499
0	1	1	1	1	499
1	1	1	1	1	497
2	1	1	1	1	496
3	1	1	1	1	496
4	1	1	1	1	495
5	1	1	1	1	496
6	1	1	1	1	494
7	1	1	1	1	494
8	1	1	1	1	492
9	1	1	1	1	492
10	1	1	1	1	492
11	1	1	1	1	492
12	1	1	1	1	494
13	1	1	1	1	494
14	1	1	1	1	496
15	1	1	1	1	496
0	1	1	1	1	496
1	1	1	1	1	496
2	1	1	1	1	496
3	1	1	1	1	496
4	1	1	1	1	496
5	1	1	1	1	496
6	1	1	1	1	487
7	1	1	1	1	487
8	1	1	1	1	487
9	1	1	1	1	492
10	1	1	1	1	487
11	1	1	1	1	487
12	1	1	1	1	487
13	1	1	1	1	487
14	1	1	1	1	492
15	1	1	1	1	492
0	1	1	1	1	492
1	1	1	1	1	494
2	1	1	1	1	492
3	1	1	1	1	496
4	1	1	1	1	499
5	1	1	1	1	496
6	1	1	1	1	494
7	1	1	1	1	492
8	1	1	1	1	492
9	1	1	1	1	492
10	1	1	1	1	483
11	1	1	1	1	480
12	1	1	1	1	487
13	1	1	1	1	487
14	1	1	1	1	487
15	1	1	1	1	487
0	1	1	1	1	489
1	1	1	1	1	492
2	1	1	1	1	494
3	1	1	1	1	494
4	1	1	1	1	494
5	1	1	1	1	494
6	1	1	1	1	492
7	1	1	1	1	494
8	1	1	1	1	492
9	1	1	1	1	487
10	1	1	1	1	483
11	1	1	1	1	487
12	1	1	1	1	487
13	1	1	1	1	492
14	1	1	1	1	492
15	1	1	1	1	492
0	1	1	1	1	492
1	1	1	1	1	487
2	1	1	1	1	487
3	1	1	1	1	487
4	1	1	1	1	487
5	1	1	1	1	487
6	1	1	1	1	487
7	1	1	1	1	487
8	1	1	1	1	487
9	1	1	1	1	492
10	1	1	1	1	492
11	1	1	1	1	492
12	1	1	1	1	492
13	1	1	1	1	492
14	1	1	1	1	492
15	1	1	1	1	492
0	1	1	1	1	492
1	1	1	1	1	487
2	1	1	1	1	489
3	1	1	1	1	487
4	1	1	1	1	489
5	1	1	1	1	487
6	1	1	1	1	487
7	1	1	1	1	487
8	1	1	1	1	487
9	1	1	1	1	487
10	1	1	1	1	489
11	1	1	1	1	492
12	1	1	1	1	492
13	1	1	1	1	492
14	1	1	1	1	492
15	1	1	1	1	492
0	1	1	1	1	492
1	1	1	1	1	492
2	1	1	1	1	489
3	1	1	1	1	487
4	1	1	1	1	487
5	1	1	1	1	487
6	1	1	1	1	487
7	1	1	1	1	487
8	1	1	1	1	487
9	1	1	1	1	487
10	1	1	1	1	487
11	1	1	1	1	489
12	1	1	1	1	495
13	1	1	1	1	496
14	1	1	1	1	496
15	1	1	1	1	496
0	1	1	1	1	496
1	1	1	1	1	494
2	1	1	1	1	492
3	1	1	1	1	487
4	1	1	1	1	489
5	1	1	1	1	492
6	1	1	1	1	489
7	1	1	1	1	489
8	1	1	1	1	492
9	1	1	1	1	487
10	1	1	1	1	492
11	1	1	1	1	487
12	1	1	1	1	486
13	1	1	1	1	481
14	1	1	1	1	487
15	1	1	1	1	487
0	1	1	1	1	487
1	1	1	1	1	487
2	1	1	1	1	487
3	1	1	1	1	492
4	1	1	1	1	494
5	1	1	1	1	487
6	1	1	1	1	486
7	1	1	1	1	492
8	1	1	1	1	492
9	1	1	1	1	492
10	1	1	1	1	492
11	1	1	1	1	492
12	1	1	1	1	494
13	1	1	1	1	496
14	1	1	1	1	494
15	1	1	1	1	492
0	1	1	1	1	487
1	1	1	1	1	487
2	1	1	1	1	494
3	1	1	1	1	492
4	1	1	1	1	487
5	1	1	1	1	483
6	1	1	1	1	481
7	1	1	1	1	483
8	1	1	1	1	487
9	1	1	1	1	487
10	1	1	1	1	487
11	1	1	1	1	492
12	1	1	1	1	492
13	1	1	1	1	492
14	1	1	1	1	492
15	1	1	1	1	492
0	1	1	1	1	489
1	1	1	1	1	487
2	1	1	1	1	487
3	1	1	1	1	487
4	1	1	1	1	487
5	1	1	1	1	487
6	1	1	1	1	487
7	1	1	1	1	487
8	1	1	1	1	492
9	1	1	1	1	492
10	1	1	1	1	489
11	1	1	1	1	489
12	1	1	1	1	487
13	1	1	1	1	487
14	1	1	1	1	487
15	1	1	1	1	487
0	1	1	1	1	487
1	1	1	1	1	487
2	1	1	1	1	487
3	1	1	1	1	489
4	1	1	1	1	495
5	1	1	1	1	496
6	1	1	1	1	496
7	1	1	1	1	494
8	1	1	1	1	492
9	1	1	1	1	487
10	1	1	1	1	487
11	1	1	1	1	487
12	1	1	1	1	489
13	1	1	1	1	492
14	1	1	1	1	491
15	1	1	1	1	492
0	1	1	1	1	494
1	1	1	1	1	496
2	1	1	1	1	496
3	1	1	1	1	496
4	1	1	1	1	497
5	1	1	1	1	497
6	1	1	1	1	496
7	1	1	1	1	492
8	1	1	1	1	487
9	1	1	1	1	487
10	1	1	1	1	487
11	1	1	1	1	492
12	1	1	1	1	496
13	1	1	1	1	497
14	1	1	1	1	497
15	1	1	1	1	496
0	1	1	1	1	496
1	1	1	1	1	494
2	1	1	1	1	487
3	1	1	1	1	487
4	1	1	1	1	486
5	1	1	1	1	487
6	1	1	1	1	492
7	1	1	1	1	487
8	1	1	1	1	486
9	1	1	1	1	481
10	1	1	1	1	486
11	1	1	1	1	491
12	1	1	1	1	492
13	1	1	1	1	496
14	1	1	1	1	496
15	1	1	1	1	496
0	1	1	1	1	496
1	1	1	1	1	492
2	1	1	1	1	487
3	1	1	1	1	492
4	1	1	1	1	487
5	1	1	1	1	487
6	1	1	1	1	487
7	1	1	1	1	487
8	1	1	1	1	492
9	1	1	1	1	492
10	1	1	1	1	492
11	1	1	1	1	494
12	1	1	1	1	496
13	1	1	1	1	496
14	1	1	1	1	496
15	1	1	1	1	496
0	1	1	1	1	496
1	1	1	1	1	496
2	1	1	1	1	496
3	1	1	1	1	494
4	1	1	1	1	496
5	1	1	1	1	496
6	1	1	1	1	494
7	1	1	1	1	492
8	1	1	1	1	492
9	1	1	1	1	487
10	1	1	1	1	487
11	1	1	1	1	487
12	1	1	1	1	492
13	1	1	1	1	494
14	1	1	1	1	496
15	1	1	1	1	496
0	1	1	1	1	496
1	1	1	1	1	496
2	1	1	1	1	496
3	1	1	1	1	496
4	1	1	1	1	494
5	1	1	1	1	494
6	1	1	1	1	492
7	1	1	1	1	494
8	1	1	1	1	496
9	1	1	1	1	496
10	1	1	1	1	496
11	1	1	1	1	496
12	1	1	1	1	496
13	1	1	1	1	496
14	1	1	1	1	489
15	1	1	1	1	481
0	1	1	1	1	487
1	1	1	1	1	492
2	1	1	1	1	487
3	1	1	1	1	487
4	1	1	1	1	489
5	1	1	1	1	487
6	1	1	1	1	487
7	1	1	1	1	487
8	1	1	1	1	487
9	1	1	1	1	487
10	1	1	1	1	487
11	1	1	1	1	489
12	1	1	1	1	492
13	1	1	1	1	494
14	1	1	1	1	496
15	1	1	1	1	496
0	1	1	1	1	495
1	1	1	1	1	494
2	1	1	1	1	494
3	1	1	1	1	496
4	1	1	1	1	494
5	1	1	1	1	483
6	1	1	1	1	486
7	1	1	1	1	492
8	1	1	1	1	492
9	1	1	1	1	492
10	1	1	1	1	487
11	1	1	1	1	489
12	1	1	1	1	492
13	1	1	1	1	492
14	1	1	1	1	494
15	1	1	1	1	496
0	1	1	1	1	494
1	1	1	1	1	489
2	1	1	1	1	494
3	1	1	1	1	496
4	1	1	1	1	497
5	1	1	1	1	497
6	1	1	1	1	496
7	1	1	1	1	496
8	1	1	1	1	496
9	1	1	1	1	496
10	1	1	1	1	494
11	1	1	1	1	494
12	1	1	1	1	496
13	1	1	1	1	496
14	1	1	1	1	496
15	1	1	1	1	496
0	1	1	1	1	496
1	1	1	1	1	492
2	1	1	1	1	492
3	1	1	1	1	492
4	1	1	1	1	487
5	1	1	1	1	486
6	1	1	1	1	486
7	1	1	1	1	487
8	1	1	1	1	499
9	1	1	1	1	504
10	1	1	1	1	504
11	1	1	1	1	504
12	1	1	1	1	504
13	1	1	1	1	502
14	1	1	1	1	499
15	1	1	1	1	496
0	1	1	1	1	496
1	1	1	1	1	496
2	1	1	1	1	492
3	1	1	1	1	487
4	1	1	1	1	487
5	1	1	1	1	496
6	1	1	1	1	499
7	1	1	1	1	502
8	1	1	1	1	504
9	1	1	1	1	499
10	1	1	1	1	499
11	1	1	1	1	496
12	1	1	1	1	496
13	1	1	1	1	492
14	1	1	1	1	487
15	1	1	1	1	486
0	1	1	1	1	483
1	1	1	1	1	483
2	1	1	1	1	483
3	1	1	1	1	487
4	1	1	1	1	492
5	1	1	1	1	494
6	1	1	1	1	496
7	1	1	1	1	496
8	1	1	1	1	497
9	1	1	1	1	496
10	1	1	1	1	492
11	1	1	1	1	481
12	1	1	1	1	483
13	1	1	1	1	492
14	1	1	1	1	494
15	1	1	1	1	496
0	1	1	1	1	496
1	1	1	1	1	496
2	1	1	1	1	499
3	1	1	1	1	499
4	1	1	1	1	499
5	1	1	1	1	499
6	1	1	1	1	499
7	1	1	1	1	499
8	1	1	1	1	499
9	1	1	1	1	497
10	1	1	1	1	492
11	1	1	1	1	483
12	1	1	1	1	481
13	1	1	1	1	480
14	1	1	1	1	478
15	1	1	1	1	480
0	1	1	1	1	486
1	1	1	1	1	487
2	1	1	1	1	494
3	1	1	1	1	492
4	1	1	1	1	492
5	1	1	1	1	496
6	1	1	1	1	496
7	1	1	1	1	487
8	1	1	1	1	494
9	1	1	1	1	497
10	1	1	1	1	499
11	1	1	1	1	499
12	1	1	1	1	499
13	1	1	1	1	499
14	1	1	1	1	499
15	1	1	1	1	499
0	1	1	1	1	504
1	1	1	1	1	504
2	1	1	1	1	496
3	1	1	1	1	491
4	1	1	1	1	489
5	1	1	1	1	494
6	1	1	1	1	494
7	1	1	1	1	496
8	1	1	1	1	489
9	1	1	1	1	487
10	1	1	1	1	483
11	1	1	1	1	480
12	1	1	1	1	480
13	1	1	1	1	480
14	1	1	1	1	483
15	1	1	1	1	487
0	1	1	1	1	494
1	1	1	1	1	499
2	1	1	1	1	504
3	1	1	1	1	508
4	1	1	1	1	508
5	1	1	1	1	499
6	1	1	1	1	497
7	1	1	1	1	497
8	1	1	1	1	496
9	1	1	1	1	496
10	1	1	1	1	499
11	1	1	1	1	504
12	1	1	1	1	511
13	1	1	1	1	513
14	1	1	1	1	512
15	1	1	1	1	510
0	1	1	1	1	504
1	1	1	1	1	496
2	1	1	1	1	492
3	1	1	1	1	487
4	1	1	1	1	487
5	1	1	1	1	483
6	1	1	1	1	483
7	1	1	1	1	483
8	1	1	1	1	481
9	1	1	1	1	480
10	1	1	1	1	480
11	1	1	1	1	472
12	1	1	1	1	467
13	1	1	1	1	472
14	1	1	1	1	472
15	1	1	1	1	472
0	1	1	1	1	478
1	1	1	1	1	487
2	1	1	1	1	499
3	1	1	1	1	504
4	1	1	1	1	508
5	1	1	1	1	508
6	1	1	1	1	511
7	1	1	1	1	512
8	1	1	1	1	510
9	1	1	1	1	505
10	1	1	1	1	497
11	1	1	1	1	496
12	1	1	1	1	496
13	1	1	1	1	499
14	1	1	1	1	499
15	1	1	1	1	499
0	1	1	1	1	492
1	1	1	1	1	487
2	1	1	1	1	487
3	1	1	1	1	492
4	1	1	1	1	487
5	1	1	1	1	487
6	1	1	1	1	494
7	1	1	1	1	499
8	1	1	1	1	504
9	1	1	1	1	499
10	1	1	1	1	496
11	1	1	1	1	494
12	1	1	1	1	499
13	1	1	1	1	508
14	1	1	1	1	508
15	1	1	1	1	499
0	1	1	1	1	495
1	1	1	1	1	489
2	1	1	1	1	483
3	1	1	1	1	480
4	1	1	1	1	480
5	1	1	1	1	480
6	1	1	1	1	481
7	1	1	1	1	483
8	1	1	1	1	481
9	1	1	1	1	483
10	1	1	1	1	489
11	1	1	1	1	499
12	1	1	1	1	508
13	1	1	1	1	510
14	1	1	1	1	505
15	1	1	1	1	511
0	1	1	1	1	513
1	1	1	1	1	510
2	1	1	1	1	502
3	1	1	1	1	492
4	1	1	1	1	494
5	1	1	1	1	489
6	1	1	1	1	486
7	1	1	1	1	480
8	1	1	1	1	487
9	1	1	1	1	494
10	1	1	1	1	496
11	1	1	1	1	497
12	1	1	1	1	504
13	1	1	1	1	504
14	1	1	1	1	494
15	1	1	1	1	480
0	1	1	1	1	463
1	1	1	1	1	472
2	1	1	1	1	480
3	1	1	1	1	476
4	1	1	1	1	476
5	1	1	1	1	487
6	1	1	1	1	487
7	1	1	1	1	487
8	1	1	1	1	483
9	1	1	1	1	487
10	1	1	1	1	487
11	1	1	1	1	504
12	1	1	1	1	513
13	1	1	1	1	518
14	1	1	1	1	519
15	1	1	1	1	519
0	1	1	1	1	521
1	1	1	1	1	518
2	1	1	1	1	524
3	1	1	1	1	536
4	1	1	1	1	536
5	1	1	1	1	515
6	1	1	1	1	504
7	1	1	1	1	504
8	1	1	1	1	497
9	1	1	1	1	492
10	1	1	1	1	478
11	1	1	1	1	463
12	1	1	1	1	454
13	1	1	1	1	448
14	1	1	1	1	449
15	1	1	1	1	455
0	1	1	1	1	455
1	1	1	1	1	455
2	1	1	1	1	463
3	1	1	1	1	473
4	1	1	1	1	492
5	1	1	1	1	497
6	1	1	1	1	512
7	1	1	1	1	518
8	1	1	1	1	515
9	1	1	1	1	508
10	1	1	1	1	504
11	1	1	1	1	504
12	1	1	1	1	499
13	1	1	1	1	492
14	1	1	1	1	483
15	1	1	1	1	487
0	1	1	1	1	496
1	1	1	1	1	504
2	1	1	1	1	497
3	1	1	1	1	487
4	1	1	1	1	487
5	1	1	1	1	512
6	1	1	1	1	524
7	1	1	1	1	513
8	1	1	1	1	515
9	1	1	1	1	519
10	1	1	1	1	513
11	1	1	1	1	504
12	1	1	1	1	496
13	1	1	1	1	486
14	1	1	1	1	483
15	1	1	1	1	478
0	1	1	1	1	472
1	1	1	1	1	472
2	1	1	1	1	467
3	1	1	1	1	463
4	1	1	1	1	462
5	1	1	1	1	467
6	1	1	1	1	473
7	1	1	1	1	480
8	1	1	1	1	497
9	1	1	1	1	531
10	1	1	1	1	547
11	1	1	1	1	547
12	1	1	1	1	543
13	1	1	1	1	531
14	1	1	1	1	515
15	1	1	1	1	505
0	1	1	1	1	480
1	1	1	1	1	467
2	1	1	1	1	472
3	1	1	1	1	480
4	1	1	1	1	496
5	1	1	1	1	513
6	1	1	1	1	526
7	1	1	1	1	527
8	1	1	1	1	515
9	1	1	1	1	492
10	1	1	1	1	470
11	1	1	1	1	460
12	1	1	1	1	448
13	1	1	1	1	433
14	1	1	1	1	435
15	1	1	1	1	435
0	1	1	1	1	435
1	1	1	1	1	448
2	1	1	1	1	455
3	1	1	1	1	470
4	1	1	1	1	480
5	1	1	1	1	483
6	1	1	1	1	483
7	1	1	1	1	480
8	1	1	1	1	481
9	1	1	1	1	483
10	1	1	1	1	487
11	1	1	1	1	487
12	1	1	1	1	483
13	1	1	1	1	487
14	1	1	1	1	494
15	1	1	1	1	518
0	1	1	1	1	527
1	1	1	1	1	511
2	1	1	1	1	512
3	1	1	1	1	519
4	1	1	1	1	515
5	1	1	1	1	508
6	1	1	1	1	492
7	1	1	1	1	472
8	1	1	1	1	470
9	1	1	1	1	467
10	1	1	1	1	463
11	1	1	1	1	467
12	1	1	1	1	476
13	1	1	1	1	481
14	1	1	1	1	487
15	1	1	1	1	497
0	1	1	1	1	511
1	1	1	1	1	519
2	1	1	1	1	513
3	1	1	1	1	515
4	1	1	1	1	529
5	1	1	1	1	527
6	1	1	1	1	524
7	1	1	1	1	512
8	1	1	1	1	504
9	1	1	1	1	497
10	1	1	1	1	495
11	1	1	1	1	478
12	1	1	1	1	472
13	1	1	1	1	480
14	1	1	1	1	480
15	1	1	1	1	470
0	1	1	1	1	472
1	1	1	1	1	480
2	1	1	1	1	494
3	1	1	1	1	487
4	1	1	1	1	476
5	1	1	1	1	476
6	1	1	1	1	492
7	1	1	1	1	499
8	1	1	1	1	511
9	1	1	1	1	511
10	1	1	1	1	515
11	1	1	1	1	496
12	1	1	1	1	502
13	1	1	1	1	519
14	1	1	1	1	505
15	1	1	1	1	499
0	1	1	1	1	494
1	1	1	1	1	480
2	1	1	1	1	473
3	1	1	1	1	476
4	1	1	1	1	483
5	1	1	1	1	480
6	1	1	1	1	472
7	1	1	1	1	478
8	1	1	1	1	483
9	1	1	1	1	497
10	1	1	1	1	524
11	1	1	1	1	547
12	1	1	1	1	560
13	1	1	1	1	556
14	1	1	1	1	512
15	1	1	1	1	472
0	1	1	1	1	454
1	1	1	1	1	449
2	1	1	1	1	440
3	1	1	1	1	441
4	1	1	1	1	472
5	1	1	1	1	480
6	1	1	1	1	496
7	1	1	1	1	497
8	1	1	1	1	487
9	1	1	1	1	472
10	1	1	1	1	480
11	1	1	1	1	492
12	1	1	1	1	510
13	1	1	1	1	515
14	1	1	1	1	545
15	1	1	1	1	551
0	1	1	1	1	543
1	1	1	1	1	543
2	1	1	1	1	512
3	1	1	1	1	483
4	1	1	1	1	460
5	1	1	1	1	472
6	1	1	1	1	480
7	1	1	1	1	467
8	1	1	1	1	496
9	1	1	1	1	515
10	1	1	1	1	494
11	1	1	1	1	449
12	1	1	1	1	414
13	1	1	1	1	432
14	1	1	1	1	432
15	1	1	1	1	440
0	1	1	1	1	455
1	1	1	1	1	455
2	1	1	1	1	460
3	1	1	1	1	476
4	1	1	1	1	476
5	1	1	1	1	492
6	1	1	1	1	542
7	1	1	1	1	568
8	1	1	1	1	556
9	1	1	1	1	531
10	1	1	1	1	497
11	1	1	1	1	492
12	1	1	1	1	463
13	1	1	1	1	451
14	1	1	1	1	463
15	1	1	1	1	472
0	1	1	1	1	481
1	1	1	1	1	455
2	1	1	1	1	403
3	1	1	1	1	391
4	1	1	1	1	448
5	1	1	1	1	504
6	1	1	1	1	505
7	1	1	1	1	508
8	1	1	1	1	519
9	1	1	1	1	524
10	1	1	1	1	526
11	1	1	1	1	510
12	1	1	1	1	483
13	1	1	1	1	492
14	1	1	1	1	508
15	1	1	1	1	511
0	1	1	1	1	510
